mean_nni,sdnn,sdsd,nni_50,pnni_50,nni_20,pnni_20,rmssd,median_nni,range_nni,cvsd,cvnni,mean_hr,max_hr,min_hr,std_hr,lf,hf,lf_hf_ratio,lfnu,hfnu,total_power,vlf,driver,window_start_unix,window_end_unix,adb,event_count,n_samples,n_beats,ODI-3%,CVHRI,CEI
656.1054945054946,46.36939728944299,20.09537120330544,10,2.202643171806167,81,17.841409691629956,20.095805773634208,648.0,312.0,0.030628924680443925,0.07067369146846045,91.88113540493677,113.63636363636364,71.42857142857143,6.1613310551924245,725.7983388395696,121.34507646175399,5.9812755490605305,85.67597005772721,14.324029942272798,1261.6057691545113,414.46235385318766,1,1614088467.0,1614088767.0,0,0,74973,455,25.064999999999998,17.0,10.899999999999999
1028.151724137931,94.91386231732876,51.46544884346844,84,29.06574394463668,184,63.667820069204154,51.4665208476937,1040.0,440.0,0.050057320957027585,0.09231503492046438,58.892874277248524,78.94736842105263,50.0,5.849869192460184,4907.200139021889,819.5938753149302,5.987355795132425,85.68843451915492,14.311565480845074,7736.207313265741,2009.413298928921,1,1614104667.0,1614104967.0,0,0,74973,290,25.064999999999998,17.0,10.899999999999999
666.6261061946902,59.01805150485687,42.38261026033654,16,3.5476718403547673,33,7.317073170731708,42.38305941122505,660.0,976.0,0.0635784572751895,0.08853246363505071,90.61741338752498,166.66666666666666,44.91017964071856,7.456365180424162,2419.477846755808,1049.2074677782384,2.3060051715788887,69.75201343915569,30.247986560844303,4157.5388226413415,688.8535081072952,1,1614158667.0,1614158967.0,0,0,74968,452,25.064999999999998,17.0,10.899999999999999
789.0343007915567,51.85762341312444,17.248534423403225,3,0.7936507936507936,72,19.047619047619047,17.250105436377414,796.0,272.0,0.021862301067358116,0.06572290122381377,76.38540879809403,94.33962264150944,66.07929515418502,5.249449947352855,599.4701824795675,82.65239059525665,7.252907969899307,87.88305887273573,12.116941127264273,1016.3188110046559,334.1962379298318,1,1614161667.0,1614161967.0,0,0,74968,379,25.064999999999998,17.0,10.899999999999999
710.6857142857143,42.60476387936568,15.50894013644087,1,0.2386634844868735,59,14.081145584725537,15.509178127974756,712.0,212.0,0.02182283647499865,0.05994881144077344,84.72874320441586,95.54140127388536,71.42857142857143,5.078018424546782,449.14354702826347,75.75274606544735,5.929072810644004,85.5680546686728,14.431945331327203,1034.7155972188084,509.8193041250975,1,1614165567.0,1614165867.0,0,0,74969,420,25.064999999999998,17.0,10.899999999999999
647.8120950323975,68.35539690685717,17.222577437514964,9,1.948051948051948,45,9.74025974025974,17.22313454735704,628.0,272.0,0.02658662084179781,0.10551732119703426,93.63069074742963,112.78195488721805,74.6268656716418,9.629983547918135,189.5901159742507,79.15122718066264,2.3952896591421298,70.54743187205227,29.452568127947725,841.7753599536485,573.0340167987351,1,1614168567.0,1614168867.0,0,0,74969,463,25.064999999999998,17.0,10.899999999999999
595.2814371257485,26.38777434211796,6.978806774800402,0,0.0,4,0.8,6.978825116020604,592.0,132.0,0.01172357255035047,0.044328233162331504,100.98496892147105,110.29411764705883,88.75739644970415,4.348548325144237,304.068881478007,14.79861220576828,20.54712139557826,95.35900883630232,4.6409911636976835,568.1375098933961,249.27001620962096,1,1614169467.0,1614169767.0,0,0,74968,501,25.064999999999998,17.0,10.899999999999999
593.9041916167664,18.584046986466905,5.626986404817414,0,0.0,0,0.0,5.627077394171863,596.0,100.0,0.009474722478138183,0.031291321477082266,101.12790917298409,111.94029850746269,94.33962264150944,3.2503595905749325,92.48413478557447,10.116688466761543,9.141739917111394,90.13975897456436,9.860241025435638,236.48673178319018,133.88590853085418,1,1614172467.0,1614172767.0,0,0,74968,501,25.064999999999998,17.0,10.899999999999999
609.9755102040816,18.707942941028087,5.810903846969131,0,0.0,2,0.40899795501022496,5.810926876638887,608.0,128.0,0.009526492095878906,0.030669990234147116,98.45414410167407,105.63380281690141,86.20689655172414,2.9258853726736387,84.52954517485574,14.844505828471895,5.6943320412005445,85.06198984685166,14.938010153148342,249.3536612911285,149.97961028780088,1,1614180867.0,1614181167.0,0,0,74968,490,25.064999999999998,17.0,10.899999999999999
652.1575492341357,49.3164827890466,15.245684694888038,7,1.5350877192982457,49,10.74561403508772,15.247663036353323,644.0,224.0,0.023380336629177243,0.07562050435046201,92.5100288632389,104.8951048951049,75.37688442211055,6.744378896379605,824.8386062913657,110.69267115263351,7.451609918727143,88.16793475306768,11.83206524693233,1614.22135519394,678.6900777499409,1,1614194520.0,1614194820.0,1,1,74969,457,25.064999999999998,17.0,10.899999999999999
701.0328638497652,39.87254812395007,12.563207665688372,1,0.23529411764705882,34,8.0,12.56400086147159,704.0,208.0,0.017922128204483315,0.05687686010180394,85.87647574410849,102.04081632653062,75.37688442211055,5.093403988223579,316.8525786785125,54.49487640326194,5.814355396162462,85.32509765247708,14.67490234752292,756.460205871683,385.1127507899086,1,1614194697.0,1614194997.0,1,1,74969,426,25.064999999999998,17.0,10.899999999999999
905.0424242424242,86.78508910033922,41.998127153246074,54,16.41337386018237,179,54.40729483282675,41.9986973310792,908.0,400.0,0.04640522499951831,0.09589063095355296,66.92971830845505,84.7457627118644,54.151624548736464,6.672997262570722,3927.562434651409,727.7653250081864,5.3967430154867975,84.36704432898186,15.63295567101814,6902.979380924811,2247.6516212652155,1,1614202269.0,1614202569.0,1,1,74968,330,25.064999999999998,17.0,10.899999999999999
855.4451038575668,131.9521381755946,61.447082159331956,28,8.333333333333334,95,28.273809523809526,61.44708331254664,840.0,1388.0,0.07183053948810454,0.15424968543342657,71.5129180687737,114.50381679389314,31.380753138075313,9.466354907964226,8991.783615810422,574.6290516398751,15.647979492421571,93.9932650658585,6.006734934141504,21528.2294389845,11961.816771534204,1,1614205767.0,1614206067.0,0,0,74969,337,25.064999999999998,17.0,10.899999999999999
829.6378830083565,30.834072280237695,20.332420462622142,3,0.8379888268156425,114,31.843575418994412,20.332432742518794,828.0,152.0,0.024507599229667765,0.03716569953198137,72.42027873559371,78.94736842105263,65.78947368421052,2.685647582209285,313.85590773513985,313.22560938418917,1.0020122823040871,50.05025649247694,49.94974350752307,775.995487316993,148.91397019766404,1,1614232467.0,1614232767.0,0,0,74982,359,25.064999999999998,17.0,10.899999999999999
875.5190615835777,36.86418340259708,32.806740382623694,46,13.529411764705882,188,55.294117647058826,32.80674249207282,872.0,184.0,0.03747119158403505,0.04210551776670598,68.6502781660478,75.37688442211055,61.224489795918366,2.845869527688822,343.9206467767949,766.6584488838745,0.4485969564119269,30.967685968571278,69.03231403142873,1186.4718043756045,75.89270871493508,1,1614234267.0,1614234567.0,0,0,74982,341,25.064999999999998,17.0,10.899999999999999
824.2314049586777,75.6116232767157,37.98810819953839,46,12.707182320441989,173,47.790055248618785,37.99389308299703,832.0,596.0,0.04609614830789156,0.09173591642083384,73.4929881095862,120.96774193548387,54.94505494505494,7.769190136630545,1360.7853360522613,792.8791271517604,1.7162582409510212,63.18464920147364,36.81535079852637,2597.802631690922,444.1381684869008,1,1614243867.0,1614244167.0,0,0,74982,363,25.064999999999998,17.0,10.899999999999999
762.4260204081633,61.07179655122704,28.69159560296349,12,3.0690537084398977,86,21.994884910485933,28.692478317852927,764.0,476.0,0.03763313101839372,0.08010193109428818,79.25230597135204,141.50943396226415,66.66666666666667,7.103411689229657,402.20431523840057,246.468645572164,1.6318680792224276,62.00417460530754,37.99582539469247,1707.52774932554,1058.8547885149756,1,1614253467.0,1614253767.0,0,0,74982,392,25.064999999999998,17.0,10.899999999999999
773.0103092783505,69.71855489056074,29.060125417879046,20,5.167958656330749,112,28.940568475452196,29.06021548493761,784.0,480.0,0.03759356781679534,0.09019097682623019,78.38083410295637,135.13513513513513,64.93506493506493,8.697514380291345,834.0108474936018,323.5910769529372,2.5773604616881927,72.04642890450883,27.953571095491164,2127.037883637916,969.4359591913769,1,1614300267.0,1614300567.0,0,0,74961,388,25.064999999999998,17.0,10.899999999999999
575.0556621880999,20.117031905469148,10.525511414299277,6,1.1538461538461537,7,1.3461538461538463,10.525792497114299,576.0,194.0,0.018303954189518662,0.0349827559803922,104.47531973415721,139.53488372093022,96.15384615384616,3.9671122125759877,70.03135685070345,25.806468707083198,2.713713280402509,73.07277313849023,26.927226861509766,263.5278981204419,167.69007256265525,1,1614312867.0,1614313167.0,0,0,74961,521,25.064999999999998,17.0,10.899999999999999
589.802371541502,45.54697797094167,10.786129707147321,0,0.0,28,5.544554455445544,10.786129707147321,584.0,220.0,0.018287701487121513,0.07722413501305617,102.3190341169655,116.27906976744185,81.52173913043478,7.679564584132215,416.40072922281456,46.628825354621156,8.930114066910482,89.92962222526486,10.07037777473513,917.4012010620385,454.37164648460276,1,1614328707.0,1614329007.0,1,1,74963,506,25.064999999999998,17.0,10.899999999999999
678.3922902494331,46.66410762486147,18.39248184530168,11,2.5,37,8.409090909090908,18.39256272617722,684.0,332.0,0.027111986663961928,0.06878631773321582,88.87832480110973,120.0,72.11538461538461,6.346740685417731,443.1092572930898,113.3209367433289,3.9102152702525665,79.634294120295,20.365705879705008,1075.4622473791896,519.0320533427708,1,1614350667.0,1614350967.0,0,0,74961,441,25.064999999999998,17.0,10.899999999999999
772.8992248062016,51.50579900364361,31.44462044201534,18,4.66321243523316,55,14.248704663212436,31.444663130303024,776.0,500.0,0.04068404019707424,0.06663973432831206,78.0896147357984,163.04347826086956,69.12442396313364,7.193264846276583,787.7044055256617,545.7578387680732,1.4433222018463887,59.072119131716974,40.92788086828304,1971.2320352499569,637.769790956222,1,1614367167.0,1614367467.0,0,0,74962,387,25.064999999999998,17.0,10.899999999999999
780.3834196891191,105.11331243782575,53.84265100859787,41,10.64935064935065,134,34.8051948051948,53.84267606865177,812.0,604.0,0.06899515636826452,0.13469444607075287,79.02867722774015,182.9268292682927,64.37768240343348,16.38393074832077,2307.691131771989,1608.396063569769,1.43477790330459,58.92849205495273,41.07150794504727,6770.5791077436115,2854.4919124018525,1,1614368367.0,1614368667.0,0,0,74962,386,25.064999999999998,17.0,10.899999999999999
537.7709677419355,139.45723138485,109.34599829384665,395,63.81260096930533,536,86.59127625201938,109.35204799310894,524.0,1168.0,0.20334316010451609,0.25932458193201025,118.18412577502846,200.0,40.87193460490463,27.33796847485004,6532.066155542342,6283.320685696506,1.0395882181235927,50.97049536204945,49.02950463795056,14531.42438726008,1716.037546021231,1,1614373467.0,1614373767.0,0,0,74961,620,25.064999999999998,17.0,10.899999999999999
558.3299606520517,141.25115053033497,117.21839121374572,427,72.12837837837837,516,87.16216216216216,117.22079055670432,544.0,908.0,0.20994895280168513,0.2529886634873996,114.23415135856223,200.0,49.66887417218543,28.25413827025843,8419.59220104291,8295.921506587118,1.0149074089427672,50.36992789039842,49.63007210960157,18267.224400061597,1551.7106924315715,1,1614378267.0,1614378567.0,0,0,74961,593,25.064999999999998,17.0,10.899999999999999
529.1480298189563,136.1162604659094,108.40428961549446,385,61.6,523,83.68,108.40439843474987,520.0,964.0,0.2048659209254536,0.2572366385120634,120.28681948698122,197.3684210526316,47.3186119873817,28.587545849405277,8046.107526972712,8220.85896128264,0.9787429227124628,49.46286409812149,50.53713590187851,18678.520175783422,2411.5536875280704,1,1614379767.0,1614380067.0,0,0,74962,626,25.064999999999998,17.0,10.899999999999999
552.5660585959095,149.90100650495472,120.37322160881652,399,66.27906976744185,513,85.21594684385381,120.37404482754256,528.0,1188.0,0.2178455280684764,0.271281603661757,115.73933730490049,194.80519480519482,40.106951871657756,28.211678494211974,10637.53387302293,10271.094968092433,1.035676712762257,50.876286311539275,49.12371368846071,23896.68093349028,2988.052092374914,1,1614395067.0,1614395367.0,0,0,75023,603,25.064999999999998,17.0,10.899999999999999
781.6211723534559,390.65178363022454,160.41508164126824,227,59.73684210526316,288,75.78947368421052,160.41692207771877,616.0,1160.0,0.20523615243776538,0.4997968292670153,95.43298362743067,192.30769230769232,40.76086956521739,40.54680969821366,26443.021022225308,9685.19886169841,2.7302507052073293,73.19215036662209,26.807849633377913,50123.81917525065,13995.599291326931,1,1614399267.0,1614399567.0,0,0,75023,381,25.064999999999998,17.0,10.899999999999999
702.8867521367521,374.02835201997937,178.9000471892503,104,67.09677419354838,136,87.74193548387096,178.90172235047473,584.0,1568.0,0.25452424847476424,0.5321317422514307,105.84902529012925,200.0,32.11991434689507,43.117732064830435,27358.467864141596,18878.04375870955,1.4492215514395939,59.1707006084352,40.8292993915648,91905.23923198688,45668.727609135734,1,1614405867.0,1614406167.0,0,0,75023,156,25.064999999999998,17.0,10.899999999999999
713.2057416267943,61.298035658475705,27.20133895510038,22,5.275779376498801,107,25.65947242206235,27.201354177039573,708.0,588.0,0.03813956140481196,0.08594719879660151,84.84983971492468,189.873417721519,66.3716814159292,8.920190245712549,804.6429884088277,276.2789086764163,2.91243002320978,74.4404374246266,25.559562575373405,2269.8654239151824,1188.9435268299383,1,1614413067.0,1614413367.0,0,0,75023,418,25.064999999999998,17.0,10.899999999999999
630.2283298097252,29.83142398107158,11.878547868076291,0,0.0,30,6.3559322033898304,11.878623443617288,628.0,172.0,0.01884812675305093,0.04733431134407764,95.4124384952061,105.63380281690141,81.08108108108108,4.426592979283968,373.32535322232843,82.68156940763494,4.51521851722199,81.86835214457288,18.131647855427115,736.1806691936835,280.1737465637201,1,1614416067.0,1614416367.0,0,0,75023,473,25.064999999999998,17.0,10.899999999999999
565.6704980842912,47.097712078749424,26.86277678984937,17,3.2629558541266794,47,9.021113243761997,26.86369947211692,552.0,568.0,0.047490013290588697,0.08325997597232185,106.71753264620015,138.88888888888889,60.0,7.958637496328281,410.91298543080165,75.27863467822161,5.458560548916017,84.51667376304405,15.483326236955952,747.0956807648142,260.904060655791,1,1614417267.0,1614417567.0,0,0,75023,522,25.064999999999998,17.0,10.899999999999999
517.9719789842381,17.670252118642782,5.653092209007891,0,0.0,1,0.17543859649122806,5.653131409833147,516.0,120.0,0.010913971487259104,0.034114301227828554,115.97048874281661,127.11864406779661,101.35135135135135,3.9398896555555822,132.8777593126351,11.726340716873686,11.331562208612093,91.89072736216971,8.109272637830282,241.02154144665468,96.41744141714588,1,1614429267.0,1614429567.0,0,0,75023,571,25.064999999999998,17.0,10.899999999999999
470.9669291338583,24.135863648448222,17.622745414588984,5,0.7886435331230284,7,1.1041009463722398,17.62275557895483,468.0,432.0,0.03741824423078778,0.05124747016278997,127.64213217722961,136.36363636363637,68.80733944954129,4.950098071958892,343.32942691669916,314.7722801721568,1.0907231943324989,52.16966058870036,47.83033941129965,776.2711097252684,118.16940263641244,1,1614438267.0,1614438567.0,0,0,75023,635,25.064999999999998,17.0,10.899999999999999
511.5421970768506,150.5845630937267,115.98729083521597,449,63.59773371104816,587,83.14447592067988,115.98739932429936,480.0,1080.0,0.22674062860717278,0.2943736879464196,126.05844155704877,200.0,43.47826086956522,31.945373136628184,12062.287323995453,9730.006822405388,1.2396997807051378,55.351158730516815,44.64884126948319,24179.28872773942,2386.994581338576,1,1614452667.0,1614452967.0,0,0,75023,707,25.064999999999998,17.0,10.899999999999999
512.883704735376,129.1852108906572,101.85484785674437,423,58.99581589958159,593,82.70571827057182,101.85487780185893,499.5,876.0,0.19859254029997167,0.25188012350150746,123.77552461854623,200.0,51.02040816326531,28.57768854404684,8299.195487125722,6941.114993118939,1.1956573973134164,54.45555389362704,45.54444610637295,17877.53164361169,2637.2211633670263,1,1614454467.0,1614454767.0,0,0,75023,718,25.064999999999998,17.0,10.899999999999999
1259.41059602649,495.0016162987413,356.66970990370646,179,59.46843853820598,179,59.46843853820598,356.6772915278186,1362.0,1412.0,0.2832096955934428,0.39304228331927543,63.34293918445638,194.80519480519482,34.883720930232556,45.09539631610505,110290.88709830327,30929.200928743645,3.5659145334015365,78.0985826019171,21.901417398082906,144790.57946615602,3570.491439109113,1,1614461367.0,1614461667.0,0,0,75023,302,25.064999999999998,17.0,10.899999999999999
761.6474705474706,345.93190807143685,255.5635151175912,377,78.54166666666667,442,92.08333333333333,255.575988473603,688.0,1668.0,0.3355568006940212,0.4541890066578725,95.16660468698227,200.0,30.48780487804878,40.23517589139921,67198.65741567864,28107.179009199717,2.3908004924181094,70.50843887052577,29.49156112947423,114779.3716423091,19473.535217430726,1,1614465867.0,1614466167.0,0,0,75023,481,25.064999999999998,17.0,10.899999999999999
682.1766859344895,276.7448676098842,189.2974826385958,407,78.57142857142857,465,89.76833976833977,189.29754563932093,632.0,1412.0,0.2774904940939296,0.40567916394090964,102.458836700847,200.0,35.046728971962615,40.0219312777715,27085.933169810574,19105.883227921484,1.4176750086186534,58.63794776241025,41.36205223758975,70277.62219176989,24085.805794037828,1,1614476067.0,1614476367.0,0,0,75081,519,25.064999999999998,17.0,10.899999999999999
606.1407608695653,268.9377013178776,168.6040688363639,346,62.79491833030853,459,83.30308529945553,168.6110266803726,524.5,1500.0,0.27817140434258936,0.44368852695545746,114.47799486512396,197.3684210526316,33.25942350332594,38.79325182428922,18004.87040755924,14909.620479694457,1.2076008528909392,54.70195625760602,45.298043742393965,42520.52202293029,9606.031135676589,1,1614479667.0,1614479967.0,0,0,75081,552,25.064999999999998,17.0,10.899999999999999
586.0448827901657,222.9224282712836,134.57023370708228,358,61.512027491408936,487,83.67697594501718,134.5721319798896,526.0,1504.0,0.22962768881999326,0.3803845657860668,114.86436181990491,200.0,33.25942350332594,36.09410662268021,24671.17913607169,12036.945925055905,2.049621165508152,67.20904185378147,32.790958146218536,50366.13324139605,13658.008180268449,1,1614486567.0,1614486867.0,0,0,75082,583,25.064999999999998,17.0,10.899999999999999
492.42470862470856,115.10002684530403,92.38306573760761,389,54.48179271708683,566,79.27170868347339,92.38369779916596,473.3333333333333,780.0,0.18760979329649013,0.2337413716845496,128.06688790798646,200.0,55.55555555555556,27.823204869630864,4405.925264085121,5593.750291135426,0.7876514028642493,44.06068216668203,55.93931783331798,11957.200797277823,1957.5252420572754,1,1614501567.0,1614501867.0,0,0,75082,715,25.064999999999998,17.0,10.899999999999999
512.1582397003745,138.15833877719655,104.69385083315109,431,60.61884669479606,595,83.68495077355837,104.69387637876022,488.0,1012.0,0.20441704977744532,0.2697571337679204,124.78958718490905,200.0,45.73170731707317,30.160523576031952,9077.212306965484,6929.971535564239,1.309848425838652,56.70711598156388,43.29288401843612,19588.31603531677,3581.1321927870454,1,1614503667.0,1614503967.0,0,0,75081,712,25.064999999999998,17.0,10.899999999999999
497.44444444444446,137.66210180332823,110.25150572393034,428,59.52712100139082,583,81.08484005563282,110.25417873393947,468.0,712.0,0.22164119021788145,0.27673864557291805,129.32413168060944,200.0,59.28853754940712,33.00781514181353,6472.451966811005,8435.657183298199,0.7672729967768067,43.41564648903575,56.584353510964235,17145.912396766726,2237.803246657522,1,1614504867.0,1614505167.0,0,0,75081,720,25.064999999999998,17.0,10.899999999999999
774.2945736434109,87.10389869213411,37.29160139483866,28,7.253886010362694,148,38.3419689119171,37.292430714570436,756.0,668.0,0.04816310482339099,0.112494522959486,78.59970513627412,197.3684210526316,61.72839506172839,10.563315567929827,829.2162610869455,381.07385255423725,2.1759988399333308,68.51384240363917,31.48615759636082,3024.613309171463,1814.3231955302801,2,1616506748.0,1616507048.0,0,0,74937,387,9.49,7.0,2.2
1100.0147601476015,67.75861134173853,69.64784631681474,144,53.333333333333336,218,80.74074074074075,69.64800387982734,1104.0,376.0,0.06331551757585678,0.06159791104316326,54.75455462111025,64.93506493506493,46.15384615384615,3.4267422902673004,811.642190963727,1327.4937519036273,0.6114094245640187,37.94252504942629,62.05747495057372,3698.9186720144344,1559.7827291470799,2,1616511248.0,1616511548.0,0,0,74937,271,9.49,7.0,2.2
1117.6029962546816,78.86950099041727,67.42481024836971,147,55.26315789473684,214,80.45112781954887,67.42481192526898,1116.0,468.0,0.0603298417695939,0.0705702304438385,53.96860685874066,70.09345794392523,45.31722054380665,4.042058367384109,1373.6346136691664,1188.5144533933587,1.155757601219965,53.612595431226126,46.38740456877386,4585.1739376701835,2023.0248706076582,2,1616512148.0,1616512448.0,0,0,74937,267,9.49,7.0,2.2
1083.2846715328467,78.92101573018677,57.731745343675065,124,45.42124542124542,214,78.3882783882784,57.73248905980317,1088.0,416.0,0.053293922250475266,0.07285344083980586,55.70921604118555,72.46376811594203,48.231511254019296,4.463446090771159,830.5358926377419,798.0875977128619,1.040657560671121,50.99618773513745,49.00381226486256,3884.858450977141,2256.234960626537,2,1616513048.0,1616513348.0,0,0,74937,274,9.49,7.0,2.2
1089.3430656934306,52.03386301685862,60.31681174976212,143,52.38095238095238,210,76.92307692307692,60.31759655533743,1088.0,320.0,0.055370615974813915,0.04776627736069171,55.203099250811796,61.98347107438016,46.58385093167702,2.6065010251525287,437.5286125389204,878.3672525926705,0.4981158066258393,33.24948608263673,66.75051391736329,1876.4099922480436,560.5141271164526,2,1616513348.0,1616513648.0,0,0,74936,274,9.49,7.0,2.2
1088.5839416058395,41.770459852328244,54.65808724082084,123,45.05494505494506,220,80.58608058608058,54.659518875151136,1088.0,196.0,0.05021157926922879,0.03837137243703042,55.19810440740074,60.24096385542169,50.33557046979866,2.107344431720174,289.59295877653983,754.9818971339316,0.3835760299364726,27.723523798983756,72.27647620101625,1187.9112766652993,143.33642075482794,2,1616513948.0,1616514248.0,0,0,74937,274,9.49,7.0,2.2
1082.159420289855,45.42970536022944,55.212414941173904,120,43.63636363636363,216,78.54545454545455,55.212646772604224,1084.0,248.0,0.05102080685839762,0.04198060332742948,55.54382826339651,64.1025641025641,50.67567567567568,2.3691326012482143,392.4728143341078,688.567435679575,0.5699845708601664,36.305106523937496,63.6948934760625,1483.3030760823708,402.26282606868807,2,1616516648.0,1616516948.0,0,0,74937,276,9.49,7.0,2.2
1039.4285714285713,119.20086892656091,42.73446656389157,72,25.174825174825173,177,61.88811188811189,42.73973929126516,1072.0,548.0,0.04111849574475758,0.11467923068800528,58.64143580779357,85.22727272727273,47.92332268370607,8.087602089149192,974.1249946946806,462.3957096968624,2.1066912479211752,67.81141348793047,32.188586512069534,4852.550849834878,3416.030145443335,2,1616518748.0,1616519048.0,0,0,74936,287,9.49,7.0,2.2
1124.2716981132075,53.936425741113965,55.573491824538834,106,40.15151515151515,199,75.37878787878788,55.573593031441135,1120.0,344.0,0.04943074981315166,0.04797454728392788,53.48829972201291,60.0,44.642857142857146,2.521021087647124,804.3562429531473,769.7452640050789,1.0449641986336926,51.09938840649959,48.9006115935004,2227.2531650243227,653.1516580660966,2,1616520248.0,1616520548.0,0,0,74937,265,9.49,7.0,2.2
1108.1635687732341,52.72092121240856,43.798857771415015,73,27.238805970149254,182,67.91044776119404,43.800088598015755,1108.0,320.0,0.03952493100499919,0.04757503557960491,54.26625066502504,62.76150627615063,47.02194357366771,2.589008268344375,714.9100082625223,407.2132416656018,1.7556158177429728,63.710471047482066,36.289528952517934,2271.9969796458217,1149.8737297176976,2,1616520848.0,1616521148.0,0,0,74937,269,9.49,7.0,2.2
1086.8613138686133,62.112173425542885,54.37517209774458,100,36.63003663003663,200,73.26007326007326,54.37517209774458,1088.0,372.0,0.050029540479456056,0.0571482052337097,55.38556971539563,66.3716814159292,47.02194357366771,3.180067360305466,1072.4306301303927,825.3837557963654,1.299311529454158,56.508720667468936,43.491279332531064,3484.984373318008,1587.1699873912496,2,1616522348.0,1616522648.0,0,0,74936,274,9.49,7.0,2.2
1045.7543859649122,75.09474782879443,44.627140067775386,72,25.35211267605634,182,64.08450704225352,44.62740899719383,1048.0,468.0,0.04267484755133621,0.07180916363980142,57.69035630076783,74.25742574257426,47.02194357366771,4.439413767398543,801.0519115144843,497.2718801099418,1.6108932428219747,61.69893185984298,38.30106814015702,4573.180010884986,3274.85621926056,2,1616523548.0,1616523848.0,0,0,74936,285,9.49,7.0,2.2
1035.4722222222222,101.96699229843681,40.110553920790665,62,21.60278745644599,175,60.97560975609756,40.11273312658983,1052.0,532.0,0.03873858927910599,0.09847390408948481,58.63293436881612,84.26966292134831,48.231511254019296,7.0825267690425004,926.6723626927632,370.734277250483,2.4995594407006125,71.4249745733766,28.57502542662341,5025.660236245587,3728.2535963023415,2,1616523848.0,1616524148.0,0,0,74937,288,9.49,7.0,2.2
1020.7602739726027,109.80036897981435,53.416604316915546,83,28.522336769759452,198,68.04123711340206,53.41685899360115,1048.0,800.0,0.0523304642192951,0.10756724353357956,59.7582519159032,156.25,50.67567567567568,9.590495296950579,1026.3218967868804,978.1684190525259,1.0492282073275243,51.201140193939764,48.798859806060236,5898.952425665309,3894.4621098259036,2,1616525348.0,1616525648.0,0,0,74936,292,9.49,7.0,2.2
1023.9724137931034,60.984307338513624,44.01467214291858,81,28.027681660899653,197,68.16608996539793,44.015725406324755,1032.0,360.0,0.04298526485032658,0.059556592069320805,58.81032844088863,73.52941176470588,51.02040816326531,3.633292894432716,689.0144288136389,583.5348619209946,1.1807596662612514,54.144419695984894,45.85558030401511,2067.9644592923128,795.4151685576793,2,1616527148.0,1616527448.0,0,0,74936,290,9.49,7.0,2.2
1017.7534246575342,77.34632800324376,53.516308508623965,96,32.98969072164948,206,70.79037800687286,53.51635264103861,1020.0,548.0,0.05258282737692229,0.07599711887903514,59.309978252972776,78.53403141361257,45.73170731707317,4.7585740470378335,1079.663391520843,810.9607482413682,1.3313386546293118,57.10618884071983,42.893811159280176,4135.2616927971585,2244.6375530349474,2,1616528048.0,1616528348.0,0,0,74937,292,9.49,7.0,2.2
1066.5089605734768,72.55788380426429,66.74964058241885,123,44.24460431654676,213,76.61870503597122,66.74982822708478,1056.0,424.0,0.06258721744934281,0.0680330747200182,56.507784116657525,64.65517241379311,44.37869822485207,3.6901557664436537,1304.6953408516729,1172.2861272885777,1.1129495696322442,52.67279378683665,47.327206213163365,3967.6053957586964,1490.6239276184456,2,1616529848.0,1616530148.0,0,0,74937,279,9.49,7.0,2.2
1045.4736842105262,39.8237778709405,41.59950892771665,77,27.112676056338028,197,69.36619718309859,41.59970205743793,1044.0,284.0,0.039790290932909825,0.0380916119385758,57.47265011441846,64.1025641025641,49.18032786885246,2.170540741565318,361.6135746492588,401.6423551080121,0.9003372529075313,47.37776158047778,52.62223841952222,1008.8442875656539,245.58835780838297,2,1616530448.0,1616530748.0,0,0,74937,285,9.49,7.0,2.2
996.5484949832776,102.47445330394346,40.18509716477747,68,22.818791946308725,175,58.7248322147651,40.185476023328086,1020.0,500.0,0.04032465677849668,0.10282936938825342,60.96456238182061,88.75739644970415,51.02040816326531,7.445662929285603,924.7947717538249,345.20366809381335,2.6789830387969706,72.81857542004325,27.181424579956765,6170.455337611158,4900.45689776352,2,1616532248.0,1616532548.0,0,0,74937,299,9.49,7.0,2.2
1111.5074626865671,89.05359630728438,79.25824538132704,154,57.67790262172284,210,78.65168539325843,79.25836006661656,1104.0,536.0,0.07130708765107639,0.08011965667962098,54.31973787983859,65.50218340611353,41.32231404958678,4.270906446150821,1197.2919135869988,1570.5208235998946,0.7623534152464193,43.257692166121174,56.74230783387883,7161.835978537364,4394.023241350471,2,1616532848.0,1616533148.0,0,0,74937,268,9.49,7.0,2.2
854.4756446991404,72.76361197022766,25.51149101614975,18,5.172413793103448,121,34.770114942528735,25.516278329139517,856.0,360.0,0.02986191413112045,0.08515586420938612,70.74047674895273,89.28571428571429,58.13953488372093,6.174949009739276,1005.1234675418211,185.79646412413118,5.409809450788552,84.39891220359166,15.601087796408317,3734.709917505815,2543.789985839863,2,1616535248.0,1616535548.0,0,0,74937,349,9.49,7.0,2.2
747.5889724310777,39.00820012615492,15.913074141666208,0,0.0,65,16.331658291457288,15.914343582387916,740.0,224.0,0.021287557962012482,0.05217867245861655,80.46605066245877,88.75739644970415,66.66666666666667,4.0030153110933435,228.01199508579745,50.630215884944356,4.503476651254023,81.82966761979193,18.17033238020806,894.1664971092548,615.5242861385129,2,1616536448.0,1616536748.0,0,0,74937,399,9.49,7.0,2.2
817.9397260273972,45.58058538085044,24.971037443911666,14,3.8461538461538463,139,38.18681318681319,24.971192193414385,820.0,276.0,0.030529379364779705,0.055726093170982254,73.58105756567738,86.20689655172414,61.72839506172839,4.075865662949384,652.886923401575,159.8006713544052,4.085633169547863,80.33676502686284,19.663234973137175,1709.2522569003756,896.5646621443954,2,1616538548.0,1616538848.0,0,0,74937,365,9.49,7.0,2.2
814.7792915531335,38.54048763929789,22.46325728111898,8,2.185792349726776,123,33.60655737704918,22.464544012842058,816.0,208.0,0.027571324217163292,0.0473017515772056,73.8061868850893,83.79888268156425,64.93506493506493,3.534527191178004,626.2832669535258,140.65429413202855,4.4526423513643305,81.66026789287243,18.339732107127574,1053.4827821265076,286.54522104095315,2,1616540048.0,1616540348.0,0,0,74937,367,9.49,7.0,2.2
783.8845144356956,49.20619662077153,20.76940803800887,5,1.3157894736842106,122,32.10526315789474,20.769410705473362,792.0,248.0,0.02649549815437404,0.06277225243592698,76.85280936180136,90.9090909090909,66.07929515418502,4.976729222540668,420.9961508076394,151.57019992718628,2.7775654515853665,73.52792392835124,26.472076071648754,1122.1214632358108,549.555112500985,2,1616540348.0,1616540648.0,0,0,74937,381,9.49,7.0,2.2
757.9187817258884,35.80116851033519,19.250901455385872,5,1.272264631043257,89,22.646310432569976,19.25111939509951,756.0,220.0,0.025399976698376556,0.04723615428662535,79.33781856869474,89.82035928143712,67.56756756756756,3.690063196607238,580.0073294356205,101.35981929393489,5.722260886768635,85.12405250489027,14.875947495109731,1177.6360663336773,496.268917604122,2,1616541548.0,1616541848.0,0,0,74936,394,9.49,7.0,2.2
738.2617283950617,40.3742472814034,16.49166166343268,4,0.9900990099009901,73,18.06930693069307,16.492422502470642,736.0,204.0,0.02233953334994652,0.05468825719731494,81.51436923966162,92.5925925925926,70.4225352112676,4.449000774061743,383.11701061603344,100.28536495036151,3.8202683991394535,79.25426724830247,20.745732751697535,1135.0649952083209,651.6626196419259,2,1616544548.0,1616544848.0,0,0,74952,405,9.49,7.0,2.2
724.6295399515739,42.06826166882089,24.972685615767947,13,3.1553398058252426,68,16.50485436893204,24.973772650289533,720.0,428.0,0.034464193458023394,0.05805485334151884,83.06523308141048,96.7741935483871,57.25190839694657,4.603506689990573,777.6305676908131,275.5153712632529,2.8224580143217954,73.83882317992115,26.161176820078857,1652.5341283798778,599.3881894258116,2,1616546048.0,1616546348.0,0,0,74952,413,9.49,7.0,2.2
736.2123456790124,52.73626089839492,25.502340589667774,19,4.702970297029703,93,23.019801980198018,25.503639810120365,740.0,380.0,0.03464168994150489,0.07163186166045069,81.94285661593773,126.05042016806723,70.09345794392523,6.2723559140329295,633.221260469279,197.57269578198395,3.2050038997697397,76.21880921311967,23.781190786880334,1436.668596369686,605.874640118423,2,1616548748.0,1616549048.0,0,0,74952,405,9.49,7.0,2.2
758.9746192893401,34.666926483889846,16.281214575716543,2,0.5089058524173028,69,17.557251908396946,16.281243208278806,764.0,204.0,0.021451630653372335,0.04567600233634946,79.22665291938715,93.75,71.09004739336493,3.793302321545976,259.6406423554788,52.60406587885758,4.935752360918408,83.15293598526615,16.84706401473385,824.9619829080473,512.7172746737109,2,1616550848.0,1616551148.0,0,0,74952,394,9.49,7.0,2.2
691.3518518518518,45.6007723333493,19.545719549205817,7,1.6241299303944317,107,24.82598607888631,19.546600869932487,688.0,228.0,0.02827301441020958,0.06595884890045971,87.1601161404066,101.35135135135135,73.17073170731707,5.689629719092608,313.5866878160731,68.64339359334323,4.568344765613154,82.0413418692137,17.958658130786297,1087.0942494508854,704.8641680414692,2,1616555348.0,1616555648.0,0,0,74952,432,9.49,7.0,2.2
704.8510638297872,39.467954996609585,19.911389247263116,4,0.9478672985781991,100,23.696682464454977,19.91355726717794,708.0,192.0,0.0282521489844652,0.05599474416930242,85.3963094214673,99.33774834437087,75.37688442211055,4.87502234323306,571.4955542368316,56.80665854209358,10.060362093175309,90.95870468276043,9.041295317239573,969.5700624018369,341.26784962291174,2,1616555648.0,1616555948.0,0,0,74952,423,9.49,7.0,2.2
708.0473933649289,29.119095779789333,16.72802205307488,6,1.4251781472684086,60,14.251781472684085,16.728089509036224,708.0,184.0,0.023625663572515318,0.04112591339599961,84.88310823180292,95.54140127388536,73.89162561576354,3.487655625631247,451.6877416174407,71.12486581716351,6.350630492274919,86.39572481502178,13.604275184978231,752.4511703169151,229.63856288231094,2,1616556548.0,1616556848.0,0,0,74952,422,9.49,7.0,2.2
696.9626168224299,28.12765321835081,19.033275463445857,7,1.639344262295082,105,24.59016393442623,19.033312347637146,696.0,176.0,0.02730894295939892,0.040357477631425234,86.226198197146,95.54140127388536,74.6268656716418,3.4390770751101223,338.3110388443742,64.31651406620728,5.260096007319637,84.02580409580386,15.974195904196145,551.323019786357,148.69546687577562,2,1616556848.0,1616557148.0,0,0,74952,428,9.49,7.0,2.2
763.3765903307888,90.28701774362898,31.22417300092729,32,8.16326530612245,156,39.795918367346935,31.228176052914726,784.0,500.0,0.04090795611034238,0.11827323353537147,79.86893286066072,147.05882352941177,66.07929515418502,10.95824619318372,396.73533317714515,289.4824269571526,1.3704988497829178,57.81478653357808,42.185213466421914,1919.4095599585544,1233.1917998242566,2,1616559548.0,1616559848.0,0,0,74952,393,9.49,7.0,2.2
746.8465346534654,78.87450353606563,48.15127570013815,52,12.903225806451612,172,42.67990074441688,48.15586769078208,756.0,636.0,0.06447893302889363,0.10561005491263767,81.38421445990993,164.83516483516485,60.0,10.26044210367591,983.1005867386186,740.6779173482271,1.3272983623682375,57.031723299009705,42.96827670099029,2355.1956117741192,631.4171076872736,2,1616560148.0,1616560448.0,0,0,74952,404,9.49,7.0,2.2
686.6183908045977,93.7447098706958,42.40962498894497,54,12.442396313364055,165,38.0184331797235,42.41222978131474,680.0,660.0,0.06176972587584636,0.13653102090790672,89.10869824610857,172.41379310344828,59.523809523809526,13.164072595030355,3689.7627799559004,688.3578559856317,5.360239224222521,84.27732095057729,15.722679049422714,5884.621307006201,1506.5006710646694,2,1616561948.0,1616562248.0,0,0,74951,435,9.49,7.0,2.2
648.3548387096774,61.423741121032926,35.2887422974662,29,6.25,71,15.301724137931034,35.28889392546554,656.0,784.0,0.05442836517684619,0.09473784639793127,93.42458618404852,197.3684210526316,55.14705882352941,9.839761811404026,911.0110644313429,513.41535187946,1.7744133694023834,63.95634439234977,36.04365560765024,2159.101669110154,734.675252799351,2,1616564048.0,1616564348.0,0,0,74952,465,9.49,7.0,2.2
691.0462962962963,31.01167634581262,13.052070080836272,2,0.46403712296983757,35,8.120649651972158,13.05209977684383,692.0,216.0,0.018887446248966724,0.04487640916682651,87.00244591669707,102.04081632653062,74.6268656716418,3.9738587064867046,382.7508693156525,58.39175150697217,6.554879061470707,86.76352074118668,13.236479258813311,739.9173849696796,298.7747641470549,2,1616565248.0,1616565548.0,0,0,74952,432,9.49,7.0,2.2
579.0930232558139,20.63720529753634,8.688738712428693,0,0.0,9,1.7475728155339805,8.6887942564586,580.0,100.0,0.01500414252550981,0.03563711609148479,103.74215499941376,113.63636363636364,95.54140127388536,3.706862810327668,42.64320226206449,8.632588949649215,4.9397929764508595,83.16439640296151,16.83560359703848,102.2897432195384,51.013952007824685,2,1616567566.0,1616567866.0,1,1,74953,516,9.49,7.0,2.2
575.357833655706,36.93496276385865,17.049005531937258,12,2.3255813953488373,22,4.263565891472868,17.04985848676184,584.0,340.0,0.029633486309607576,0.06419476820048046,104.73641657453535,163.04347826086956,84.7457627118644,7.142935213210115,162.80919096304206,73.89275592594947,2.203317347186223,68.78236241943388,31.217637580566116,326.71562999572876,90.01368310673722,2,1616569448.0,1616569748.0,0,0,74952,517,9.49,7.0,2.2
650.9455337690632,37.643745989278194,18.613042163251162,9,1.965065502183406,67,14.62882096069869,18.613044212249687,644.0,228.0,0.02859385808283779,0.05782933292639061,92.47170484563385,107.14285714285714,76.14213197969544,5.178087282692025,951.2792846486445,108.68488115271852,8.752636747257927,89.74636269231331,10.253637307686684,1176.0492165368275,116.0850507354643,2,1616570048.0,1616570348.0,0,0,74952,459,9.49,7.0,2.2
653.0590809628009,27.823354320511864,12.269967112901218,0,0.0,35,7.675438596491228,12.270346511357042,652.0,156.0,0.018789029766291508,0.042604651143495424,92.04109866823259,103.44827586206897,81.52173913043478,3.901776101772558,313.1070484317986,28.898844877422313,10.834586979509984,91.55019096372887,8.44980903627112,576.7621955965382,234.75630228731723,2,1616570348.0,1616570648.0,0,0,74952,457,9.49,7.0,2.2
671.7573033707865,20.550409827133965,11.194309080914385,1,0.22522522522522523,27,6.081081081081081,11.195237082497776,672.0,124.0,0.016665597867446477,0.030592015485376656,89.40209849196593,98.03921568627452,81.52173913043478,2.756387628102756,197.70594701805356,29.058078758620127,6.80382033032393,87.18576341238636,12.814236587613632,383.11830387385726,156.35427809718357,2,1616570948.0,1616571248.0,0,0,74952,445,9.49,7.0,2.2
703.377358490566,28.634966087642706,9.907151293008637,0,0.0,15,3.5460992907801416,9.907372425057732,708.0,156.0,0.014085429827196539,0.04071067364052317,85.44524058678535,94.9367088607595,76.14213197969544,3.5105477698855276,177.2197805885654,23.593286708825556,7.511449454910947,88.25111979695751,11.748880203042487,414.3061531556481,213.4930858582571,2,1616571848.0,1616572148.0,0,0,74952,424,9.49,7.0,2.2
656.9298245614035,53.996616792388934,39.53220579798446,39,8.571428571428571,61,13.406593406593407,39.53220970797869,668.0,536.0,0.060177218676853654,0.08219541079359512,92.0452230368879,189.873417721519,70.4225352112676,9.022086145885247,350.4101440245356,655.8371237100298,0.5342944632994961,34.82346290623361,65.17653709376638,1271.7478499155668,265.5005821810013,2,1616572448.0,1616572748.0,0,0,74952,456,9.49,7.0,2.2
694.3255813953489,31.64762347064173,16.930947844368994,7,1.6317016317016317,59,13.752913752913752,16.930958113979926,692.0,180.0,0.024384753446581486,0.04558037946267398,86.58970007228162,95.54140127388536,74.25742574257426,3.848878402185978,682.0069681689105,87.98310743845556,7.7515671817567515,88.57347513614967,11.42652486385032,995.2140363238054,225.2239607164393,2,1616572748.0,1616573048.0,0,0,74952,430,9.49,7.0,2.2
647.3982683982684,40.82481271507131,15.093787382540027,3,0.6507592190889371,49,10.629067245119305,15.094208856307468,656.0,260.0,0.023315182621127688,0.06305981141419516,93.06048315267127,111.94029850746269,75.37688442211055,6.084477525957383,263.2796831514921,53.60684859893769,4.911306857846321,83.08326696536386,16.916733034636135,827.0429906126458,510.1564588622161,2,1616575309.0,1616575609.0,1,1,74953,462,9.49,7.0,2.2
639.4551282051282,32.841911180108184,17.21098840739205,7,1.4989293361884368,29,6.209850107066381,17.21099693270436,636.0,278.0,0.026915097203166562,0.051359211509166225,94.07169854602995,120.48192771084338,77.31958762886597,4.738073155366294,215.8832418865416,76.87076352379347,2.808392059482019,73.74219921737757,26.257800782622425,606.3043000983454,313.55029468801035,2,1616576048.0,1616576348.0,0,0,74952,468,9.49,7.0,2.2
518.8090277777778,26.234096401623248,9.195244270940737,3,0.5217391304347826,12,2.0869565217391304,9.198109446582182,516.0,184.0,0.017729277930996257,0.0505659982710635,115.92469481754074,128.2051282051282,92.02453987730061,5.4759206862254475,143.7389710667336,44.50801959476831,3.2295072298303156,76.35658374225976,23.643416257740245,379.81641870503006,191.56942804352815,2,1616577548.0,1616577848.0,0,0,74952,576,9.49,7.0,2.2
686.8847926267281,29.07234901428897,17.967361087885124,5,1.1547344110854503,76,17.551963048498845,17.967895413456596,688.0,160.0,0.026158528484442427,0.042324927449788045,87.50719795858663,96.7741935483871,76.92307692307692,3.7029705864115114,350.0768484930344,44.801076472202894,7.814027609587501,88.65444897276875,11.345551027231242,724.8000293764557,329.9221044112184,2,1616580248.0,1616580548.0,0,0,74952,434,9.49,7.0,2.2
684.8899082568807,37.128875140340114,18.882395346188915,15,3.4482758620689653,71,16.32183908045977,18.88379467028344,682.0,208.0,0.02757201477584149,0.05421145018012769,87.85996340726572,100.0,74.25742574257426,4.714253380091457,665.7273154095965,79.12348424917221,8.413776538367765,89.37727068489149,10.622729315108515,855.6238020323348,110.77300237356614,2,1616580848.0,1616581148.0,0,0,74952,436,9.49,7.0,2.2
706.8909952606635,17.904005429191777,14.883846235375481,1,0.2375296912114014,59,14.014251781472684,14.883873528467024,704.0,108.0,0.02105540122629324,0.02532781652224858,84.93276408049124,92.02453987730061,78.94736842105263,2.1379225793270975,85.79684952096243,26.7726429843689,3.204646234256908,76.21678628150434,23.78321371849566,192.92683606974282,80.3573435644115,2,1616581748.0,1616582048.0,0,0,74952,422,9.49,7.0,2.2
726.9002433090025,20.893160858816067,10.714860390808974,0,0.0,19,4.634146341463414,10.714931455569886,728.0,136.0,0.01474058036738751,0.028742817258811216,82.61139883325323,93.16770186335404,76.92307692307692,2.4106295662986015,122.16871924063973,53.15576947801512,2.2983153181738425,69.68149180613624,30.318508193863764,254.8965594757868,79.57207075713197,2,1616582948.0,1616583248.0,0,0,74952,411,9.49,7.0,2.2
773.699481865285,31.168629746113638,17.92102688429489,6,1.5584415584415585,78,20.25974025974026,17.921038930922403,776.0,212.0,0.02316279039985551,0.0402851888577853,77.68193176263703,93.75,70.4225352112676,3.302976299885307,262.15412222540095,90.09208625157942,2.9098462820956716,74.42354691591605,25.57645308408395,612.8581199835326,260.6119115065522,2,1616585348.0,1616585648.0,0,0,74952,386,9.49,7.0,2.2
711.5238095238095,79.80598134528464,26.10118491998602,27,6.443914081145585,108,25.77565632458234,26.101326331756585,688.0,376.0,0.036683700506417366,0.11216206720994361,85.33364798797993,103.44827586206897,62.76150627615063,9.047877695261846,614.9036272328524,173.590630657028,3.5422627644446396,77.98454092467578,22.015459075324216,2496.5728032051675,1708.078545315287,2,1616587448.0,1616587748.0,0,0,74952,420,9.49,7.0,2.2
824.4419889502763,37.573834303780686,20.24667516076575,1,0.2770083102493075,114,31.57894736842105,20.24667819271436,824.0,220.0,0.024558038605594936,0.045574867373775696,72.93236866073882,85.22727272727273,64.93506493506493,3.434076129598001,259.2520209850729,114.0861944277338,2.27242237577915,69.44159753332868,30.558402466671318,1025.930709309506,652.5924938966995,2,1616593748.0,1616594048.0,0,0,74952,362,9.49,7.0,2.2
879.9882352941177,26.74825018075171,25.00924968765256,7,2.0648967551622417,146,43.067846607669615,25.009260821616817,880.0,168.0,0.028419994516469864,0.030396145207340946,68.24625933245623,76.14213197969544,62.76150627615063,2.0957091654374094,233.00624952223552,165.42411851592288,1.4085385590240127,58.481046680638585,41.518953319361415,593.2919146461785,194.8615466080201,2,1616594648.0,1616594948.0,0,0,74952,340,9.49,7.0,2.2
834.5546218487395,31.64862320495982,17.49150604549039,4,1.1235955056179776,48,13.48314606741573,17.492213355944628,840.0,212.0,0.02095993826886389,0.03792277027338306,72.00184186485177,86.20689655172414,66.07929515418502,2.8360562541305225,215.2346342622799,68.71498772613606,3.1322807641340003,75.80028906362152,24.199710936378484,622.0262551112327,338.07663312281665,2,1616596748.0,1616597048.0,0,0,74952,357,9.49,7.0,2.2
850.6666666666666,26.124974367724953,16.986702121942088,1,0.2857142857142857,68,19.428571428571427,16.986717500110828,852.0,176.0,0.01996871179480113,0.03071117676456695,70.59938720282119,77.31958762886597,63.02521008403362,2.1704882893852067,249.21228074584803,76.46480048220579,3.2591764991768013,76.52128292421607,23.478717075783937,633.7567626681871,308.0796814401333,2,1616597948.0,1616598248.0,0,0,74952,351,9.49,7.0,2.2
866.0930232558139,35.33220201583942,28.35179939431135,6,1.749271137026239,92,26.82215743440233,28.351808987898767,864.0,480.0,0.032735293122808845,0.04079492741209106,69.4227743834223,121.95121951219512,61.72839506172839,3.7228249810289653,440.266514767656,338.43712602476126,1.3008812595088772,56.53839171981219,43.461608280187825,1025.8654923685747,247.16185157615735,2,1616598248.0,1616598548.0,0,0,74952,344,9.49,7.0,2.2
831.1396648044692,37.61782672194511,17.7640901728648,6,1.680672268907563,59,16.526610644257705,17.764093706409117,832.0,272.0,0.02137317524195916,0.04526053600244784,72.33339388231305,81.52173913043478,59.523809523809526,3.1851599485949795,355.1315082235163,71.87747533904296,4.94078995607979,83.16722174335413,16.83277825664586,1367.5353431279693,940.5263595654101,2,1616598593.0,1616598893.0,1,1,74953,358,9.49,7.0,2.2
1076.404332129964,44.63648320979785,46.8226666135182,93,33.69565217391305,194,70.28985507246377,46.82375217895232,1072.0,244.0,0.04350015210947597,0.04146813783392363,55.83649599815589,62.5,49.83388704318937,2.3067954774123356,341.94436971924034,517.1960853520434,0.6611503439483436,39.8007529154088,60.199247084591214,1227.6638201812225,368.52336510993865,2,1616603355.0,1616603655.0,1,1,74953,277,9.49,7.0,2.2
1067.225806451613,33.486643648692095,46.52468759230208,101,36.330935251798564,199,71.58273381294964,46.52468981723498,1068.0,144.0,0.043594044986527754,0.03137728065256483,56.27572066627325,60.0,52.44755244755245,1.7630603020932012,136.30334464271095,494.27196879249004,0.27576588042348626,21.615712150253362,78.38428784974664,699.8197197088089,69.24440627360792,2,1616604248.0,1616604548.0,0,0,74952,279,9.49,7.0,2.2
1050.8127208480566,32.82195004843682,44.264931216560825,81,28.72340425531915,207,73.40425531914893,44.268042360918614,1052.0,164.0,0.04212743287423487,0.031234823672431297,57.15403517004612,60.97560975609756,52.26480836236934,1.777115414497849,133.2391209402493,467.0127197527994,0.28530083936637923,22.19720322496835,77.80279677503165,664.0966186421531,63.84477794910443,2,1616605148.0,1616605448.0,0,0,74951,283,9.49,7.0,2.2
1027.6,36.372619840320034,45.32965159241818,96,33.21799307958477,209,72.31833910034602,45.33000869822677,1028.0,180.0,0.044112503598897214,0.03539569856006232,58.46135503322125,63.559322033898304,53.380782918149464,2.064351720931,221.5027656908145,513.2853948965769,0.43153919416593883,30.14511903862804,69.85488096137196,929.1105323685399,194.32237178114843,2,1616606348.0,1616606648.0,0,0,74952,290,9.49,7.0,2.2
1032.6805555555557,36.740099100577396,46.57943561607195,106,36.933797909407666,217,75.60975609756098,46.579443956568824,1036.0,208.0,0.04510537523533623,0.03557740958995027,58.174663086023415,64.65517241379311,52.816901408450704,2.0697005893196807,203.69454852200133,534.8044360216074,0.3808766995974797,27.582238132376613,72.41776186762338,859.552488050158,121.05350350654915,2,1616606948.0,1616607248.0,0,0,74952,288,9.49,7.0,2.2
986.6402640264026,79.33297646563469,34.92174740380286,37,12.251655629139073,140,46.35761589403973,34.922051326836055,1000.0,440.0,0.03539491808728935,0.08040719536610329,61.26821455832177,86.70520231213872,53.003533568904594,5.733754266515748,517.2393808864397,233.92195135381647,2.2111622183934934,68.85862712658944,31.141372873410557,3220.8222268075633,2469.6608945673074,2,1616608448.0,1616608748.0,0,0,74952,303,9.49,7.0,2.2
1051.0422535211267,30.59247077962045,32.79626503981628,27,9.540636042402827,173,61.130742049469966,32.797483312912554,1052.0,156.0,0.031204723885302203,0.02910679440063588,57.13427441406,61.47540983606557,53.003533568904594,1.6560051376013578,174.45935803153424,252.65897766692322,0.6904934059438868,40.845672838241555,59.15432716175844,722.1197204951242,295.00138479666674,2,1616608748.0,1616609048.0,0,0,74952,284,9.49,7.0,2.2
1054.8975265017668,31.516292548264147,34.969887237878076,44,15.602836879432624,183,64.8936170212766,34.97030148305277,1052.0,168.0,0.03315042514036476,0.029876164989008875,56.927853980205164,60.72874493927125,51.90311418685121,1.6874817266794255,209.01969462673372,294.1508721935386,0.7105866899799902,41.540524905423084,58.459475094576916,655.6973611229039,152.52679430263163,2,1616609348.0,1616609648.0,0,0,74952,283,9.49,7.0,2.2
1010.264406779661,40.12935615496714,27.547361813014742,13,4.421768707482993,143,48.63945578231292,27.547361813014742,1008.0,240.0,0.027267477333805377,0.039721637113678265,59.480991942697635,64.65517241379311,51.36986301369863,2.288940956747135,262.87849603370506,154.931049189518,1.6967450837574933,62.91826001563871,37.0817399843613,771.2343430993867,353.42479787616367,2,1616614148.0,1616614448.0,0,0,74952,295,9.49,7.0,2.2
1084.0290909090909,31.671659905052973,31.02997576235347,29,10.583941605839415,140,51.09489051094891,31.030006668845772,1080.0,172.0,0.028624699216165242,0.029216614360867765,55.39548265633127,59.05511811023622,50.505050505050505,1.5927841523838868,321.6660708624631,158.77176356304204,2.0259652197838194,66.952693525293,33.047306474707,704.6011801248144,224.16334569930922,2,1616617148.0,1616617448.0,0,0,74952,275,9.49,7.0,2.2
1074.4604316546763,30.17524415977127,29.710011337662,17,6.137184115523466,155,55.95667870036101,29.710516680866448,1072.0,200.0,0.02765156892293563,0.02808409064752733,55.88542126297472,60.24096385542169,50.16722408026756,1.5509646289717192,225.0522102576855,151.11023813262972,1.4893247012168478,59.828462734846376,40.17153726515362,708.7837147902644,332.62126639994926,2,1616617448.0,1616617748.0,0,0,74952,278,9.49,7.0,2.2
1017.2696245733788,90.54280187532257,46.974236639488225,76,26.027397260273972,173,59.24657534246575,46.978281195778,1028.0,528.0,0.04618075686225242,0.08900570673511882,59.49926405775877,81.08108108108108,47.3186119873817,5.9005450260606995,995.775201910247,488.7116380569997,2.037551644706499,67.07874903978384,32.921250960216156,4909.482969565171,3424.996129597924,2,1616618648.0,1616618948.0,0,0,74952,293,9.49,7.0,2.2
1009.7432432432432,52.22884736009747,37.10276016465189,35,11.864406779661017,129,43.728813559322035,37.10324578062716,1008.0,388.0,0.03674522808536302,0.05172487927954943,59.57948049890826,73.17073170731707,49.66887417218543,3.087470512779222,961.8905967468005,331.72942123610034,2.899624016352165,74.356502170293,25.64349782970699,2256.1292001322204,962.5091821493196,2,1616619548.0,1616619848.0,0,0,74951,296,9.49,7.0,2.2
1028.6896551724137,43.14512682492443,42.39926453289774,82,28.37370242214533,195,67.47404844290658,42.39932101042809,1028.0,304.0,0.04121682452743412,0.041941830179766985,58.427105161395104,65.50218340611353,49.18032786885246,2.404999613732683,319.2128246259024,408.7098762763798,0.7810254734584459,43.8525717401351,56.147428259864895,1324.8047366560843,596.882035753802,2,1616623148.0,1616623448.0,0,0,74952,290,9.49,7.0,2.2
952.9968051118211,41.07189587522854,32.08285624277053,26,8.333333333333334,139,44.55128205128205,32.08322510804257,952.0,292.0,0.033665616648397935,0.043097621791512004,63.07437085434578,72.46376811594203,53.57142857142857,2.680960850079381,608.6541832456146,291.0940802138327,2.090919137890086,67.64716398622394,32.35283601377605,1172.6856377763295,272.9373743168821,2,1616626448.0,1616626748.0,0,0,74952,313,9.49,7.0,2.2
1034.2145328719723,90.33253956758301,55.988314477439765,101,35.06944444444444,215,74.65277777777777,55.99007848618261,1040.0,620.0,0.05413777964490637,0.08734410192122631,58.51020699068226,81.52173913043478,44.24778761061947,5.763878689030045,1691.6099632015494,693.5094090068617,2.439202613882362,70.92349267346177,29.07650732653825,5383.321489163569,2998.2021169551576,2,1616628248.0,1616628548.0,0,0,74952,289,9.49,7.0,2.2
698.5233644859813,68.10975380143876,20.855838009578274,18,4.215456674473068,76,17.798594847775174,20.85659747129491,684.0,424.0,0.02985812434011072,0.09750533377156012,86.63006815954277,107.9136690647482,61.224489795918366,7.633898812756601,692.4163782827854,102.40193325055725,6.761751036365492,87.11630925399717,12.883690746002834,2993.269487534253,2198.4511760009104,2,1616629748.0,1616630048.0,0,0,74952,428,9.49,7.0,2.2
717.3525179856115,59.64246800760963,29.15473251900003,15,3.605769230769231,75,18.028846153846153,29.157397794622312,720.0,488.0,0.04064584296225631,0.08314248087549883,84.27182733247959,164.83516483516485,70.4225352112676,7.8427617553771665,650.5066407701481,280.26126084998583,2.321072269486227,69.88924302587668,30.110756974123326,1603.3677596815376,672.5998580614037,2,1616630648.0,1616630948.0,0,0,74956,417,9.49,7.0,2.2
770.360824742268,45.99869351408578,22.27285380365152,10,2.5839793281653747,93,24.031007751937985,22.27291375950846,768.0,276.0,0.02891231361220904,0.059710582413734635,78.16287827386431,94.33962264150944,65.78947368421052,4.6679340295985385,408.5476866441782,125.73262454751939,3.2493371399383433,76.46691784934463,23.53308215065538,1187.0007982559785,652.7204870642809,2,1616634248.0,1616634548.0,0,0,74956,388,9.49,7.0,2.2
815.4191780821918,45.695265876219814,26.4973357771046,17,4.670329670329671,150,41.20879120879121,26.49735628529552,816.0,288.0,0.03249538028724738,0.05603898841782437,73.81897101324192,94.9367088607595,65.21739130434783,4.253143530156696,526.0665872973518,217.89594444757228,2.4143018752876704,70.71143570409265,29.28856429590736,1425.3728317215891,681.4102999766651,2,1616634848.0,1616635148.0,0,0,74956,365,9.49,7.0,2.2
761.9591836734694,40.58798490963799,21.128274596261956,5,1.278772378516624,84,21.483375959079282,21.128277072956312,764.0,296.0,0.027728883023753464,0.05326792534208971,78.96826131551227,95.54140127388536,64.93506493506493,4.23067452637583,547.6143561008964,131.32990233004818,4.169761390095869,80.65674748711264,19.343252512887364,1338.6793054605432,659.7350470295987,2,1616638148.0,1616638448.0,0,0,74955,392,9.49,7.0,2.2
690.8706697459585,80.67700745109083,31.823315705573023,32,7.407407407407407,97,22.453703703703702,31.825260756547184,708.0,578.0,0.046065439090430225,0.11677584674532028,88.24240652951082,175.43859649122808,65.21739130434783,12.280272585078942,713.8948462988953,412.8187980563684,1.7293176804449115,63.36080599320384,36.63919400679616,2021.7735769339445,895.0599325786807,2,1616639348.0,1616639648.0,0,0,74955,433,9.49,7.0,2.2
812.7880434782609,42.324794087233485,26.868575231931242,10,2.7247956403269753,141,38.41961852861036,26.870564712272113,820.0,292.0,0.03305974408442538,0.05207359338863788,74.03734374603644,96.15384615384616,65.50218340611353,4.194798296782165,170.3154720932443,191.2617796760929,0.8904835685502782,47.10348100159092,52.89651899840909,490.85137939302433,129.2741276236871,2,1616639948.0,1616640248.0,0,0,74955,368,9.49,7.0,2.2
772.6943005181347,30.297140041664978,16.936932412371434,2,0.5194805194805194,76,19.74025974025974,16.93747094692481,768.0,176.0,0.0219200153742137,0.039209736659567763,77.7683787768996,87.71929824561404,69.76744186046511,3.0181586487585124,263.4080007043028,81.95614779486408,3.2140114901887777,76.26964230334355,23.730357696656455,601.3909967449094,256.02684824574254,2,1616644748.0,1616645048.0,0,0,74956,386,9.49,7.0,2.2
761.6470588235294,31.86040441570741,16.597968079819235,3,0.7692307692307693,69,17.692307692307693,16.600278032889413,760.0,204.0,0.021795236836509115,0.04183092949235604,78.91297483203111,87.20930232558139,67.26457399103138,3.2714554816207415,269.26629552132454,68.93681251028504,3.9059870295156354,79.61674187102918,20.383258128970823,614.5086973001634,276.3055892685539,2,1616645948.0,1616646248.0,0,0,74955,391,9.49,7.0,2.2
791.4058355437666,35.33528264919377,18.40886672027512,1,0.26595744680851063,89,23.670212765957448,18.40906344769545,796.0,180.0,0.023261217722822043,0.04464875170514161,75.97015475230285,87.71929824561404,69.44444444444444,3.4981980410125835,431.2645356163436,91.213678396599,4.728068675634331,82.5421087520523,17.457891247947707,993.2963468719362,470.8181328589936,2,1616648348.0,1616648648.0,0,0,74955,377,9.49,7.0,2.2
815.4207650273224,29.595501425362087,21.582336765836377,3,0.821917808219178,128,35.06849315068493,21.582336765836377,816.0,148.0,0.02646773014802145,0.036294760563732306,73.67890471836887,81.08108108108108,67.56756756756756,2.6863865501396837,204.4191928170974,105.53964175853,1.9368948900243514,65.95043277181402,34.04956722818597,484.52728014753677,174.56844557190934,2,1616650148.0,1616650448.0,0,0,74955,366,9.49,7.0,2.2
819.5054945054945,56.93645844540873,22.56498565615375,6,1.6528925619834711,127,34.98622589531681,22.56499641836625,828.0,236.0,0.027534893383457305,0.06947660366788058,73.57515423934605,85.22727272727273,63.829787234042556,5.20342100671531,220.7365478369697,126.26748535399116,1.7481661824351242,63.612098628114644,36.387901371885356,814.6413515585355,467.6373183675747,2,1616650748.0,1616651048.0,0,0,74955,364,9.49,7.0,2.2
839.6394366197183,29.282273608862834,20.4602411746918,1,0.2824858757062147,121,34.18079096045198,20.4602411746918,840.0,164.0,0.024367889694488543,0.03487481927569952,71.54739707885707,79.7872340425532,65.50218340611353,2.5344741791994063,258.98345031505573,93.83854170032532,2.7598835789895686,73.40343180868541,26.596568191314585,538.752868506951,185.9308764915699,2,1616651048.0,1616651348.0,0,0,74956,355,9.49,7.0,2.2
778.8645833333334,51.306506347242326,28.531367880972784,13,3.3942558746736293,133,34.72584856396867,28.53205791704698,780.0,452.0,0.036632886547411564,0.06587346176104723,77.40061089736112,132.7433628318584,66.3716814159292,5.678550761085252,470.8397076682995,245.89519303326247,1.9147983409525562,65.69230927745073,34.30769072254927,1606.1989574517288,889.4640567501667,2,1616654348.0,1616654648.0,0,0,74955,384,9.49,7.0,2.2
780.1465968586388,36.04458418064613,15.868293209518047,0,0.0,62,16.27296587926509,15.86954692752882,776.0,216.0,0.020341749860128346,0.04620232187871397,77.07067824587736,87.71929824561404,66.66666666666667,3.519007397556762,403.39869857398776,49.928410205703045,8.07954222680036,88.98622887563351,11.013771124366489,660.032245515426,206.70513673573524,2,1616657348.0,1616657648.0,0,0,74955,382,9.49,7.0,2.2
789.6825396825396,27.479141101113765,18.482478444248933,1,0.26525198938992045,90,23.872679045092838,18.48248148966786,788.0,156.0,0.02340495143415227,0.03479770631899834,76.07153864734816,83.79888268156425,68.80733944954129,2.6403026863145747,295.34313616287693,80.11626534489633,3.6864316489471918,78.66180337390283,21.33819662609718,582.2486767729768,206.78927526520349,2,1616657948.0,1616658248.0,0,0,74956,378,9.49,7.0,2.2
825.196675900277,47.44479353273773,25.567330620573756,27,7.5,114,31.666666666666668,25.56734027795791,820.0,264.0,0.03098332921671592,0.057495134091489375,72.9456901644098,83.79888268156425,61.224489795918366,4.118703530667644,1436.9712279714415,178.3765058144069,8.055832360941908,88.95739275924505,11.042607240754936,1928.9980879817547,313.65035419590623,2,1616659148.0,1616659448.0,0,0,74955,361,9.49,7.0,2.2
817.6986301369863,53.884972351956044,30.42620407571722,23,6.318681318681318,140,38.46153846153846,30.426275515715716,816.0,536.0,0.03720964472035193,0.06589832777747087,73.74445254285361,138.88888888888889,61.98347107438016,5.79926414735021,1076.3089694805572,268.2779629280833,4.011917183705026,80.0475553895574,19.9524446104426,2376.71036614072,1032.1234337320793,2,1616659448.0,1616659748.0,0,0,74956,365,9.49,7.0,2.2
839.1516853932584,61.302202450812985,40.674563586982345,20,5.633802816901408,163,45.91549295774648,40.675701297658506,852.0,648.0,0.04847240612833462,0.07305258812902753,72.05184908701095,192.30769230769232,62.5,8.283181971857168,539.3160065758169,591.2651106352346,0.9121390673574408,47.702548571323774,52.29745142867621,1459.9655628398514,329.3844456288,2,1616660048.0,1616660348.0,0,0,74956,356,9.49,7.0,2.2
837.3781512605042,27.863730884785557,20.61738663697261,5,1.404494382022472,106,29.775280898876403,20.617435623408486,836.0,152.0,0.024621415775385454,0.033274967638984035,71.731918858617,79.36507936507937,66.07929515418502,2.4010829026957277,208.21041920294908,98.80484506822629,2.10728956721886,67.81761151101739,32.18238848898261,643.7355392905171,336.72027501934167,2,1616662748.0,1616663048.0,0,0,74955,357,9.49,7.0,2.2
793.4308510638298,48.90181188538681,27.862698282032117,9,2.4,110,29.333333333333332,27.86290245709038,800.0,488.0,0.03511698898490257,0.061633363285306345,75.97025536456319,148.5148514851485,67.26457399103138,5.908219393916627,334.1896662969581,87.53181419837043,3.817922310390999,79.24416510736877,20.755834892631235,953.7520957147474,532.0306152194189,2,1616666648.0,1616666948.0,0,0,74956,376,9.49,7.0,2.2
850.8267045454545,61.6154887883291,27.81150906887316,11,3.133903133903134,157,44.72934472934473,27.853401332906646,860.0,656.0,0.03273686778294887,0.07241837669075814,71.17311016955095,194.80519480519482,62.24066390041494,9.672276404289633,252.27486988230896,110.9007798704734,2.2747799445319816,69.46359703742121,30.53640296257879,721.280231835812,358.1045820830296,2,1616669773.0,1616670073.0,1,1,74955,352,9.49,7.0,2.2
816.7561643835617,34.434812543673864,19.762531773993476,5,1.3736263736263736,94,25.824175824175825,19.76566008716427,816.0,184.0,0.024200197009938945,0.04216045626011673,73.59199000322639,84.7457627118644,67.26457399103138,3.108562391220135,361.47050056387206,96.52757042232972,3.7447384097865277,78.92402249326551,21.075977506734482,656.1017582504962,198.10368726429436,2,1616671148.0,1616671448.0,0,0,74956,365,9.49,7.0,2.2
776.1770833333334,40.846524130057844,20.983493265361947,6,1.566579634464752,106,27.676240208877285,20.984639415148692,776.0,256.0,0.027035891506908518,0.052625264269128245,77.516822902014,92.5925925925926,66.3716814159292,4.100304507047619,835.0661795190196,128.41950218644308,6.502643019956944,86.67136371356052,13.32863628643948,1580.4045026734047,616.918820967942,2,1616671748.0,1616672048.0,0,0,74955,384,9.49,7.0,2.2
812.625,38.13543375788333,25.755389910410912,17,4.632152588555858,145,39.509536784741144,25.757197877618832,816.0,264.0,0.03169629026625914,0.04692869867144541,74.00245546112183,93.16770186335404,66.07929515418502,3.5883966455740524,491.3160763020045,153.6346492245006,3.197950975134929,76.17885473357968,23.821145266420327,1048.6655528569222,403.71482733041705,2,1616673248.0,1616673548.0,0,0,74956,368,9.49,7.0,2.2
938.6163522012579,41.02777373397702,33.108823151936775,39,12.302839116719243,194,61.198738170347006,33.11084528836102,944.0,236.0,0.03527622889874968,0.04371090876241186,64.04970860781434,74.6268656716418,57.69230769230769,2.890271751868864,341.4201304453011,264.70947027829266,1.289791899346712,56.32790908705265,43.672090912947354,940.039258716678,333.90965799308424,2,1616679248.0,1616679548.0,0,0,74956,318,9.49,7.0,2.2
872.1286549707602,43.16218949155212,29.278977740151333,18,5.278592375366569,152,44.57478005865103,29.283526541149666,876.0,236.0,0.03357707188526153,0.04949062187734127,68.96632176372275,80.21390374331551,60.97560975609756,3.429953732898981,442.0234593348093,181.13198170646496,2.4403391116822997,70.93309794362081,29.066902056379192,1054.7743594338979,431.61891839262364,2,1616679848.0,1616680148.0,0,0,74956,342,9.49,7.0,2.2
922.4272445820434,41.06233105688335,28.225223577799046,17,5.279503105590062,160,49.68944099378882,28.22535752569693,924.0,220.0,0.030599006795908316,0.0445155228209775,65.1765429655818,73.52941176470588,57.915057915057915,2.9475677760749983,435.84229136720353,157.52766228834545,2.7667667064684736,73.45203252745247,26.547967472547523,1238.8074288494568,645.4374751939077,2,1616680148.0,1616680448.0,0,0,74955,323,9.49,7.0,2.2
938.8050314465409,50.42387872409861,33.76219481084725,43,13.564668769716087,181,57.09779179810725,33.76220424278057,938.0,268.0,0.03596295621760642,0.053710703538096594,64.09605059142382,73.52941176470588,55.35055350553505,3.4591715890578807,563.7583376834948,253.8868084251344,2.2205105542131176,68.94902273517515,31.05097726482485,1975.0904893092957,1157.4453432006665,2,1616680748.0,1616681048.0,0,0,74955,318,9.49,7.0,2.2
955.9487179487179,45.62616089302923,34.65706012433515,48,15.434083601286174,194,62.37942122186495,34.657348900304356,956.0,240.0,0.03625440177865646,0.04772866999699962,62.90869408336221,71.77033492822966,55.762081784386616,3.0238443410105167,477.3364282832385,254.98771382460484,1.871997756768696,65.18103129979089,34.81896870020911,1307.7449714448621,575.420829337019,2,1616683799.0,1616684099.0,1,1,74957,312,9.49,7.0,2.2
773.8733509234828,157.82662751454774,106.98802791730431,83,21.95767195767196,145,38.35978835978836,106.9940192936458,772.0,1596.0,0.13825779007116232,0.20394374263722764,80.97613789535669,197.3684210526316,31.57894736842105,20.191496875587262,14917.21465729552,3946.1204621793922,3.7802228290458553,79.0804731125975,20.919526887402498,26412.243066706225,7548.907947231314,2,1616687948.0,1616688248.0,0,0,74956,379,9.49,7.0,2.2
937.0532915360502,30.304020014988563,28.86872198512138,12,3.7735849056603774,171,53.77358490566038,28.868820638042116,936.0,192.0,0.030808088396679496,0.032339697527035166,64.09781867682858,72.46376811594203,58.8235294117647,2.087211521318032,298.57910524285097,184.3669804626989,1.6194825369137043,61.82452122096572,38.175478779034286,606.7545528221106,123.80846711656064,2,1616690048.0,1616690348.0,0,0,74956,319,9.49,7.0,2.2
940.8454258675079,39.62791441454551,30.099988262165002,21,6.6455696202531644,175,55.379746835443036,30.10025442509907,944.0,248.0,0.03199277330529092,0.04211947395929202,63.89219250551461,76.92307692307692,58.36575875486381,2.857035787191719,291.691043817912,199.52817700135986,1.4619040187788814,59.38103222659322,40.618967773406766,1004.5135594354476,513.2943386161759,2,1616690348.0,1616690648.0,0,0,74955,317,9.49,7.0,2.2
968.8961038961039,43.33554691549122,38.03033025312832,59,19.218241042345277,178,57.98045602605863,38.030332485071455,972.0,292.0,0.03925119765901082,0.04472672223701929,62.05034282939187,71.77033492822966,53.191489361702125,2.78882280740768,654.0911088555508,318.3241166320389,2.054795960092574,67.2645894173012,32.735410582698805,1389.7843386813383,417.3691131937485,2,1616693077.0,1616693377.0,1,1,74956,308,9.49,7.0,2.2
925.527950310559,60.55527709413671,31.454858125390956,34,10.59190031152648,155,48.28660436137071,31.454858125390956,918.0,304.0,0.03398585436002915,0.06542782103319247,65.10078550606607,75.75757575757575,54.74452554744526,4.191071552854321,692.6412600651446,180.93752392417016,3.828068634096189,79.28778408538099,20.71221591461902,1783.529914439139,909.9511304498244,2,1616694848.0,1616695148.0,0,0,74956,322,9.49,7.0,2.2
1152.3875968992247,56.32953487524109,56.3103892485149,120,46.69260700389105,206,80.1556420233463,56.310423664092355,1156.0,344.0,0.048864135483242845,0.048880719496469084,52.19540190768436,62.76150627615063,46.15384615384615,2.665187867352138,614.3901657768769,548.0283338997281,1.1210919723893162,52.854472459600885,47.14552754039913,2008.797386449932,846.3788867733272,2,1616697248.0,1616697548.0,0,0,74956,258,9.49,7.0,2.2
1015.7952218430034,132.31060013694244,75.38723949815255,97,33.21917808219178,196,67.12328767123287,75.38903666525438,1036.0,980.0,0.07421676637587704,0.13025322160591118,60.18621512866888,112.78195488721805,39.682539682539684,8.805130012671304,6242.821929261963,1364.6019741816008,4.5748299118547004,82.06223300421182,17.937766995788184,13947.472682984266,6340.048779540702,2,1616697548.0,1616697848.0,0,0,74955,293,9.49,7.0,2.2
1164.5098039215686,57.158493747138905,78.01240062880582,171,67.32283464566929,219,86.22047244094489,78.01413156864241,1164.0,284.0,0.06699310843577644,0.04908373768486419,51.647460301656444,58.13953488372093,45.59270516717325,2.5281706881417625,469.60433811279256,1197.0013198652246,0.39231731019784283,28.17729172253817,71.82270827746183,2026.35043354773,359.744775569713,2,1616699048.0,1616699348.0,0,0,74956,255,9.49,7.0,2.2
1173.244094488189,50.561701285892696,62.95269809302076,133,52.569169960474305,208,82.21343873517786,62.95289662657223,1172.0,328.0,0.05365711783448997,0.0430956367250666,51.232995700231776,56.81818181818182,43.35260115606936,2.1609546450770765,729.1435324860718,635.5544227608007,1.1472558546894018,53.42893126517292,46.57106873482708,1752.4315476438776,387.73359239700517,2,1616700248.0,1616700548.0,0,0,74956,254,9.49,7.0,2.2
1111.134328358209,119.6603051554035,64.45191762146922,123,46.06741573033708,195,73.03370786516854,64.45484439739293,1124.0,636.0,0.058008147847101614,0.10769202435875716,54.717347161183916,81.08108108108108,43.604651162790695,6.790844162787028,2502.625491228338,873.4473517432218,2.865227636483883,74.12830254650461,25.87169745349537,10976.409507492772,7600.336664521212,2,1616702048.0,1616702348.0,0,0,74956,268,9.49,7.0,2.2
1168.8,87.2735946031824,71.97029753618818,136,53.54330708661417,207,81.49606299212599,71.97068519584245,1168.0,616.0,0.061576561598085604,0.07466939990005339,51.61530157731759,63.02521008403362,38.265306122448976,3.7912304835354274,2480.274416988694,925.8274881902144,2.678981180216496,72.81856168828911,27.181438311710888,5148.554890807878,1742.4529856289696,2,1616705948.0,1616706248.0,0,0,74955,255,9.49,7.0,2.2
1119.7894736842106,50.97880471615614,63.37177246246012,151,56.9811320754717,225,84.90566037735849,63.37191807101944,1116.0,288.0,0.05659270743322848,0.04552534732125242,53.69194810379784,61.224489795918366,47.3186119873817,2.4354012988453677,609.1264458666697,820.7101318323223,0.7421943780646771,42.601123468734095,57.398876531265905,1748.9155226959765,319.07894499698443,2,1616708648.0,1616708948.0,0,0,74956,266,9.49,7.0,2.2
1107.182156133829,49.13688139518205,61.64549155890374,140,52.23880597014925,227,84.70149253731343,61.64607697145171,1108.0,264.0,0.05567835123600053,0.044380124013886926,54.29771432097851,60.97560975609756,48.07692307692308,2.398746101339942,549.8748407087589,749.717398902154,0.7334428166052519,42.31133612135041,57.68866387864959,1747.2126100773107,447.6203704663978,2,1616708948.0,1616709248.0,0,0,74955,269,9.49,7.0,2.2
1075.0143884892086,89.24824306224133,69.7893625316513,153,55.234657039711195,221,79.78339350180505,69.78936850752198,1088.0,556.0,0.06491947387383509,0.08302051025351205,56.26561024144158,81.9672131147541,46.58385093167702,5.549346362773214,1279.2153118010476,1207.9501059270362,1.058996812471256,51.432659150172434,48.56734084982757,3081.4554040237244,594.2899862956408,2,1616711526.0,1616711826.0,1,1,74956,278,9.49,7.0,2.2
1007.5540540540541,102.3963243370885,58.59993872143299,124,42.03389830508475,220,74.57627118644068,58.60063052822115,1024.0,572.0,0.058161277097176264,0.10162861627629863,60.29118133171439,88.23529411764706,47.92332268370607,7.416235860590309,1567.9453343995378,800.2547534913788,1.9593077423893484,66.20831332693372,33.79168667306628,6532.739765386214,4164.539677495297,2,1616712548.0,1616712848.0,0,0,74955,296,9.49,7.0,2.2
953.4952076677316,42.0544611345683,30.377958266726285,24,7.6923076923076925,143,45.833333333333336,30.377960972068433,948.0,296.0,0.03185958432488983,0.044105582069399546,63.046211811524394,72.46376811594203,53.380782918149464,2.7288378331336216,352.0202153631283,170.67897943611962,2.0624696522449013,67.34661519773874,32.65338480226127,750.7800280170138,228.080833217766,2,1616715248.0,1616715548.0,0,0,74956,313,9.49,7.0,2.2
957.6077170418007,100.37986145346312,37.47994205160231,59,19.032258064516128,167,53.87096774193548,37.48066168039193,980.0,532.0,0.03913989101526409,0.10482357197741904,63.43630021038471,87.71929824561404,49.3421052631579,7.527290540042766,1154.1008085680646,403.43039605861566,2.860718527516161,74.09808581297011,25.901914187029888,5651.02922826481,4093.4980236381293,2,1616715548.0,1616715848.0,0,0,74955,311,9.49,7.0,2.2
939.8107255520505,78.82356205622403,55.64783717060118,54,17.088607594936708,201,63.607594936708864,55.648080476863655,952.0,856.0,0.05921200829472938,0.08387174131251013,64.33428167014247,90.9090909090909,39.577836411609496,6.049435861883336,2865.5103286823546,1284.4331344245045,2.2309532912869443,69.04938233874365,30.95061766125634,6043.6396807022675,1893.6962175954086,2,1616718548.0,1616718848.0,0,0,74956,317,9.49,7.0,2.2
856.9655172413793,39.7303441771508,26.676359086456618,12,3.4582132564841497,164,47.262247838616716,26.67684724015099,852.0,224.0,0.031129429018363863,0.04636166027431889,70.16230613306838,79.36507936507937,61.224489795918366,3.1997002927151845,135.54636667965974,163.53012663286893,0.8288770361192604,45.32163834688828,54.67836165311173,750.8720355092204,451.79554219669166,2,1616722448.0,1616722748.0,0,0,74956,348,9.49,7.0,2.2
850.3019943019943,51.36836126321862,30.143773039571947,23,6.571428571428571,191,54.57142857142857,30.147068087721472,848.0,264.0,0.03545454237405258,0.06041190260336443,70.82163117472203,81.9672131147541,60.24096385542169,4.295612187567854,644.8139394122873,243.66513965473536,2.646311820911129,72.57502788803939,27.424972111960606,1867.9224725768236,979.4433935098009,2,1616724848.0,1616725148.0,0,0,74956,351,9.49,7.0,2.2
705.645390070922,30.55283701313637,15.613408707887158,2,0.47393364928909953,56,13.270142180094787,15.613823016619369,704.0,228.0,0.022127010586790737,0.04329772070085459,85.1841038972334,94.33962264150944,69.44444444444444,3.6069855880915727,155.60196237067518,74.83993805096438,2.0791300263331807,67.52329419518337,32.47670580481663,387.93982694499834,157.49792652335873,2,1616726948.0,1616727248.0,0,0,74956,423,9.49,7.0,2.2
577.3294573643411,61.03425732711069,25.060622962393953,25,4.854368932038835,68,13.20388349514563,25.061012927095323,564.0,424.0,0.04340851243154187,0.10571824553305822,104.91584040557322,137.61467889908258,69.76744186046511,9.482159032786612,1687.7143072942317,303.7951225285844,5.555435825456457,84.7454841047068,15.254515895293197,2802.40370645706,810.8942766342439,2,1616730548.0,1616730848.0,0,0,74955,516,9.49,7.0,2.2
577.7286821705426,61.58568134403863,7.713759338802267,0,0.0,8,1.5533980582524272,7.715323297972225,604.0,236.0,0.01335457895042625,0.10659966043690185,105.10349151230567,127.11864406779661,84.7457627118644,11.75966359669709,144.64580497210568,16.473198004873453,8.78067542982932,89.77575723502513,10.224242764974882,403.8538674431951,242.73486446621598,2,1616731148.0,1616731448.0,0,0,74956,516,9.49,7.0,2.2
705.4716981132076,31.970792683579965,14.293806569159662,2,0.4728132387706856,47,11.11111111111111,14.295761411210007,704.0,184.0,0.020264117539292064,0.04531832073361161,85.22382862647578,97.40259740259741,75.0,3.8598754765561334,217.00023318976173,52.216355717207854,4.155790464677134,80.60433202530037,19.395667974699627,621.7983041484446,352.5817152414749,2,1616732648.0,1616732948.0,0,0,74956,424,9.49,7.0,2.2
786.934036939314,50.25399378489202,21.740003541449834,13,3.439153439153439,91,24.074074074074073,21.740168367216494,784.0,264.0,0.027626417649657505,0.06386049074754592,76.55414554116565,88.23529411764706,63.559322033898304,4.858371836294483,1108.2726326137567,180.91449650983407,6.125947085470366,85.96677763663197,14.033222363368033,1543.5873969225754,254.40026779898466,2,1616735648.0,1616735948.0,0,0,74956,379,9.49,7.0,2.2
804.9487870619946,47.345596186493786,19.86004795432255,5,1.3513513513513513,88,23.783783783783782,19.86005089675305,804.0,276.0,0.024672440304234527,0.05881814712623125,74.80580267561355,92.5925925925926,64.93506493506493,4.568841379589748,607.7878383453094,97.73287249122548,6.218868051789606,86.14741268539888,13.85258731460112,1304.392097032332,598.8713861957971,2,1616737448.0,1616737748.0,0,0,74956,371,9.49,7.0,2.2
767.2082262210797,87.9788536811061,20.6266169812242,10,2.577319587628866,97,25.0,20.627276506666462,804.0,312.0,0.026886151375444818,0.11467402287179596,79.28675576062523,98.03921568627452,64.93506493506493,9.46840324614628,444.4725482644518,118.18508625892235,3.7608175644995687,78.9952043645446,21.004795635455416,1053.4470541665119,490.78941964313765,2,1616738048.0,1616738348.0,0,0,74956,389,9.49,7.0,2.2
764.9616368286445,81.54933105972287,23.89721360081488,14,3.58974358974359,78,20.0,23.89721580178166,776.0,312.0,0.03123975719992186,0.10660577881762502,79.34280226952775,96.7741935483871,64.37768240343348,8.566759033934982,798.6817352325072,202.4898904866244,3.944304248044742,79.77470742429622,20.225292575703786,1884.2852396807953,883.1136139616635,2,1616739248.0,1616739548.0,0,0,74956,391,9.49,7.0,2.2
735.5555555555555,45.35361611877828,17.652649037395133,2,0.49504950495049505,85,21.03960396039604,17.655672524070777,724.0,236.0,0.024003180168676284,0.06165899472341458,81.8646320375704,92.5925925925926,67.87330316742081,4.781624303308378,199.58993912848035,44.081006548415814,4.527799039916733,81.9096173218507,18.0903826781493,432.34653258352597,188.67558690662977,2,1616743148.0,1616743448.0,0,0,74955,405,9.49,7.0,2.2
707.771971496437,27.177463933668502,12.882810358034789,0,0.0,35,8.333333333333334,12.884837896498645,704.0,160.0,0.018204786874021484,0.03839861569568429,84.89487879867751,92.02453987730061,73.89162561576354,3.1811660536125683,273.806824584279,42.473822551573534,6.446484166849147,86.57084366805104,13.429156331948974,410.1874421918535,93.90679505600093,2,1616744348.0,1616744648.0,0,0,74956,421,9.49,7.0,2.2
765.6,30.05503093192163,15.95210282456865,0,0.0,63,16.195372750642672,15.952371268882162,764.0,164.0,0.020836430601988195,0.03925683246071268,78.49107536710065,87.20930232558139,70.4225352112676,3.094883002474292,195.65501523161618,63.31977673230956,3.089951123150142,75.5498300617885,24.45016993821151,598.9450593492738,339.97026738534805,2,1616746148.0,1616746448.0,0,0,74955,390,9.49,7.0,2.2
736.0444444444445,46.20153869967776,25.716853105953092,7,1.7326732673267327,81,20.04950495049505,25.71704369933806,744.0,520.0,0.03493952558632367,0.06277003929368695,81.9426228708035,187.5,71.42857142857143,7.2603590481678,428.89460610661683,180.9446802275284,2.3703079060810435,70.32912042856081,29.67087957143918,1295.377142611375,685.5378562772296,2,1616751548.0,1616751848.0,0,0,74955,405,9.49,7.0,2.2
774.4248704663213,36.77161247143523,17.947612150906853,2,0.5194805194805194,87,22.5974025974026,17.94768733066967,780.0,212.0,0.023175504836075885,0.047482478770720704,77.66204843741966,92.5925925925926,69.76744186046511,3.917637184835723,327.3437522486623,85.39362142986424,3.8333513296132704,79.31042186250481,20.689578137495186,946.1239268267523,533.3865531482257,2,1616753048.0,1616753348.0,0,0,74956,386,9.49,7.0,2.2
801.6021505376344,37.484987768854694,19.658514054331825,5,1.3477088948787062,90,24.258760107816713,19.658540663646903,804.0,228.0,0.024524061781099168,0.04676258383752279,75.02041854891233,89.82035928143712,66.96428571428571,3.659170085399147,345.7058738283336,88.19046991935723,3.9199912886783865,79.67476076022442,20.325239239775588,909.1103214381909,475.21397769050003,2,1616754548.0,1616754848.0,0,0,74955,372,9.49,7.0,2.2
824.0883977900553,33.003532559632646,19.573513049996336,0,0.0,102,28.25484764542936,19.574419397183714,824.0,208.0,0.02375281517089201,0.04004853441467893,72.9255571469364,83.79888268156425,64.93506493506493,2.9528091116312063,215.19573804487595,69.1831368471608,3.110522995224773,75.67219545635172,24.32780454364829,536.6965296756359,252.31765478359924,2,1616757548.0,1616757848.0,0,0,74956,362,9.49,7.0,2.2
856.5977011494252,47.026746885723945,28.297075186636,26,7.492795389048991,150,43.22766570605187,28.297309981010265,856.0,240.0,0.033034538784121804,0.054899454928049804,70.25494028409639,80.64516129032258,60.97560975609756,3.8502556867881155,536.4987228460936,161.2708396400562,3.3266939270826423,76.8876648810176,23.112335118982394,1346.126447403687,648.3568849175372,2,1616760771.0,1616761071.0,1,1,74956,348,9.49,7.0,2.2
898.2102102102102,38.98861763484518,29.01183554739346,15,4.518072289156627,181,54.51807228915663,29.011838049112846,904.0,200.0,0.03229960839826474,0.0434070078380879,66.92886947838423,77.31958762886597,61.47540983606557,2.9893169627602907,192.26941006128325,175.84043903659705,1.0934311306016866,52.23153103142286,47.768468968577125,568.5211803012694,200.4113312033891,2,1616762656.0,1616762956.0,1,1,74956,333,9.49,7.0,2.2
903.9515151515152,34.5108777284484,29.060131402778232,23,6.990881458966565,171,51.97568389057751,29.060256025079358,904.0,208.0,0.032148025129653604,0.038177797315449916,66.47499917090907,77.72020725388602,61.224489795918366,2.6228973876500454,264.227960908489,197.53144948020326,1.3376500886506688,57.22199807169529,42.77800192830472,735.5509234449614,273.7915130562692,2,1616767448.0,1616767748.0,0,0,74956,330,9.49,7.0,2.2
885.186943620178,45.95356165765171,22.488996427530072,2,0.5952380952380952,124,36.904761904761905,22.489150823494978,896.0,220.0,0.025406103180329754,0.051913962343043525,67.9719072885214,80.64516129032258,62.24066390041494,3.6653664163526174,597.2087383777566,112.49855556618942,5.308590278089252,84.14859808738632,15.851401912613674,1173.365297910844,463.65800396689804,2,1616768048.0,1616768348.0,0,0,74956,337,9.49,7.0,2.2
949.3503184713376,49.55429026435877,29.034300037239248,18,5.7507987220447285,163,52.07667731629393,29.03605778609053,948.0,272.0,0.030585187808063265,0.05219810780087171,63.373415100001516,72.81553398058253,54.74452554744526,3.315398189967398,414.06080314025246,153.43203364289855,2.6986594214344293,72.96317703098558,27.03682296901443,1109.1766556772805,541.6838188941293,2,1616770748.0,1616771048.0,0,0,74955,314,9.49,7.0,2.2
854.3610315186246,53.61780750545039,25.24718857840915,17,4.885057471264368,133,38.2183908045977,25.247282771742427,860.0,228.0,0.029551070145211848,0.0627577868458547,70.50610619154817,80.21390374331551,61.47540983606557,4.449506521142663,474.6522212938198,148.94232111853373,3.1868190164437835,76.11551882055356,23.88448117944644,1366.4581246711618,742.8635822588083,2,1616772548.0,1616772848.0,0,0,74955,349,9.49,7.0,2.2
815.9234972677596,38.05510992719934,19.617675020328672,3,0.821917808219178,102,27.945205479452056,19.618274958027452,816.0,196.0,0.024044257854715725,0.046640536832965956,73.6963765832187,84.26966292134831,66.07929515418502,3.4426692672556136,409.27524018083983,77.49938164377495,5.28101297713663,84.07900121142757,15.920998788572433,844.1852479624096,357.41062613779474,2,1616774048.0,1616774348.0,0,0,74956,366,9.49,7.0,2.2
954.4025559105431,69.06224612333592,25.8148849314435,11,3.5256410256410255,128,41.02564102564103,25.815916378496784,980.0,344.0,0.027049295099453325,0.07236175730632598,63.21290846340947,76.53061224489795,53.191489361702125,4.807746736313921,286.38778599965303,117.19131735995671,2.44376283543263,70.96199570681605,29.03800429318394,816.487820206539,412.9087168469294,2,1616778248.0,1616778548.0,0,0,74956,313,9.49,7.0,2.2
985.6105610561057,68.91125991011488,30.899515425106998,25,8.278145695364238,171,56.62251655629139,30.909395472522935,1008.0,300.0,0.0313606577423468,0.06991733107676402,61.19966786662988,76.14213197969544,55.14705882352941,4.650754628765305,404.9144025145675,185.53865526230666,2.1823721959292888,68.57689992141259,31.423100078587403,1507.9832096501764,917.5301518733022,2,1616778848.0,1616779148.0,0,0,74956,303,9.49,7.0,2.2
1055.4487632508833,52.925546763713996,44.58820294268277,87,30.851063829787233,203,71.98581560283688,44.588584233765836,1064.0,332.0,0.04224609074952035,0.050145064930199205,57.00112869554121,70.4225352112676,50.67567567567568,3.0743951968465084,495.16868363269407,350.1619071199448,1.4141135102484992,58.576927068476415,41.423072931523585,1594.9406889323059,749.6100981796671,2,1616779748.0,1616780048.0,0,0,74955,283,9.49,7.0,2.2
1024.2611683848797,77.17915010573752,41.87946920087417,69,23.79310344827586,175,60.3448275862069,41.90498283267631,1036.0,532.0,0.04091240020233781,0.07535104569807964,58.95021359745222,82.87292817679558,47.77070063694268,4.9818473210787495,945.0366853284245,387.21308062272766,2.44061146851906,70.93539886296928,29.06460113703072,3398.2774464624,2066.0276805112476,2,1616780268.0,1616780568.0,1,1,74955,291,9.49,7.0,2.2
1073.6462093862815,39.762397962630565,51.82713053775365,121,43.84057971014493,210,76.08695652173913,51.82747298992822,1076.0,244.0,0.04827239414327544,0.03703491673049317,55.96037009729568,61.72839506172839,49.3421052631579,2.0597172730126716,241.13057364659159,582.6193792443961,0.4138732459591643,29.272301964975284,70.72769803502472,1000.685929713123,176.93597682213527,2,1616783048.0,1616783348.0,0,0,74956,277,9.49,7.0,2.2
1043.3846153846155,122.29093426983209,63.71717130695463,116,40.70175438596491,192,67.36842105263158,63.717358344378695,1056.0,624.0,0.06106794887031281,0.11720599716218055,58.41287813196081,82.87292817679558,44.510385756676556,7.877235340929756,1977.6705951049057,1191.058350170607,1.6604313254859635,62.41211000560833,37.58788999439167,9397.023504915185,6228.294559639671,2,1616784645.0,1616784945.0,1,1,74956,286,9.49,7.0,2.2
1005.7966101694915,133.5867803325854,66.41575578855633,79,26.87074829931973,193,65.64625850340136,66.41756181166848,1024.0,912.0,0.06603478391170571,0.1328168925823622,60.75998561497947,85.22727272727273,37.12871287128713,8.56613755086199,4295.100140368169,432.3594579834106,9.934095487123518,90.85429607618074,9.145703923819259,10081.882079234096,5354.422480882516,2,1616786033.0,1616786333.0,1,1,74956,295,9.49,7.0,2.2
1118.681647940075,132.37790430866391,79.57180333813685,138,51.8796992481203,198,74.43609022556392,79.57480993341957,1136.0,856.0,0.07113266770751762,0.11833384819749458,54.5100225069826,82.41758241758242,37.878787878787875,7.583551553372476,3524.477316622664,1393.6274617963193,2.528995311329314,71.66332307697749,28.33667692302251,13034.398354063736,8116.293575644752,2,1616792048.0,1616792348.0,0,0,74956,267,9.49,7.0,2.2
1157.3385214007783,72.0820807265419,60.45727240877953,128,50.0,189,73.828125,60.46744992142467,1164.0,484.0,0.052246986342628796,0.06228262465445093,52.07178016760096,70.09345794392523,44.776119402985074,3.717885521791129,559.326052095829,608.2665690595884,0.9195410047942896,47.90421264758726,52.09578735241275,1564.1410653472817,396.54844419186435,2,1616793460.0,1616793760.0,1,1,74956,257,9.49,7.0,2.2
1091.7372262773722,47.9516346798392,54.498286182928574,118,43.223443223443226,209,76.55677655677655,54.49844572169546,1088.0,336.0,0.0499190138523767,0.043922322630094476,55.061873383892,60.97560975609756,45.45454545454545,2.368765210356129,448.437122971639,592.872005870933,0.756381003877695,43.064745189556,56.935254810444,1433.3141764387065,392.0050475961346,2,1616799768.0,1616800068.0,1,1,74957,274,9.49,7.0,2.2
1061.067615658363,61.784409594471875,51.98260305533153,90,32.142857142857146,195,69.64285714285714,51.984613108111134,1052.0,392.0,0.048992743102291486,0.0582285319829843,56.73277809027952,64.65517241379311,45.45454545454545,3.2101149321099305,1232.8893333382412,611.5142607934306,2.0161252359652018,66.84487805493971,33.15512194506029,2621.6615266212393,777.2579324895679,2,1616802548.0,1616802848.0,0,0,74955,281,9.49,7.0,2.2
741.1017369727048,43.60858320690698,18.418028710737875,5,1.243781094527363,79,19.65174129353234,18.418031398523972,732.0,220.0,0.024852230779756384,0.058842910536199576,81.23576334625197,92.02453987730061,68.80733944954129,4.691744170092131,228.3504264265771,80.04398984743656,2.8528116459688206,74.04492895347491,25.955071046525084,1186.3114988366842,877.9170825626705,2,1616804048.0,1616804348.0,0,0,74961,403,9.49,7.0,2.2
763.1508951406649,32.86733618135499,16.677894442963254,3,0.7692307692307693,66,16.923076923076923,16.677944901990955,760.0,184.0,0.021854059280002357,0.043067938975943736,78.76207532744525,86.70520231213872,68.4931506849315,3.27598528156347,407.88502442623763,75.78541016514089,5.382104860782993,84.33118819239654,15.668811807603461,817.9866121031532,334.3161775117747,2,1616809448.0,1616809748.0,0,0,74961,391,9.49,7.0,2.2
747.42,31.644383665097028,14.398426222043248,1,0.2506265664160401,47,11.779448621553884,14.398551862578,744.0,204.0,0.01926433847445613,0.04233815480599533,80.41896925919515,91.46341463414635,69.76744186046511,3.385169924785972,547.0870547478605,51.2217469027965,10.680757448317168,91.43891135121493,8.561088648785091,779.4165708758298,181.10776922517294,2,1616810048.0,1616810348.0,0,0,74961,400,9.49,7.0,2.2
751.2745591939547,43.7009775289929,20.577361674627276,9,2.272727272727273,99,25.0,20.577520342216733,748.0,252.0,0.02739014663865955,0.05816911672861629,80.13195645026764,94.33962264150944,67.56756756756756,4.623949068400875,854.1842750905491,102.36153741302508,8.34477770340579,89.29883586598811,10.701164134011886,1367.647834815541,411.1020223119669,2,1616810948.0,1616811248.0,0,0,74961,397,9.49,7.0,2.2
757.0941475826972,48.053475647285765,18.133853163919564,5,1.2755102040816326,65,16.581632653061224,18.13385603488341,756.0,316.0,0.023951916802926618,0.06347093792854461,79.5608725174333,92.02453987730061,61.98347107438016,4.927080393901196,1124.8325257107838,68.2623243232107,16.47808709801456,94.27855008164138,5.721449918358605,2158.959502328294,965.8646522942998,2,1616811848.0,1616812148.0,0,0,74961,393,9.49,7.0,2.2
763.4782608695652,34.63056176630291,19.516102692387197,2,0.5128205128205128,104,26.666666666666668,19.516199714136235,764.0,200.0,0.02556222058229689,0.045358936254269185,78.75246080597648,92.02453987730061,70.4225352112676,3.64674688804719,495.70321760758725,90.92452099734996,5.451810052670333,84.50047363706699,15.499526362933002,807.0749688008856,220.4472301959483,2,1616813648.0,1616813948.0,0,0,74961,391,9.49,7.0,2.2
751.808564231738,32.170059912153505,15.67279706042204,1,0.25252525252525254,62,15.656565656565656,15.673435030540231,752.0,164.0,0.02084764097700414,0.04279022804831654,79.95309457210341,87.71929824561404,70.75471698113208,3.411093283435158,315.1452174482962,53.637255370619336,5.875491116589124,85.45558443691085,14.544415563089142,724.3708045358784,355.58833171696295,2,1616814248.0,1616814548.0,0,0,74961,397,9.49,7.0,2.2
838.9775280898876,33.232421816472254,23.794227302562415,10,2.816901408450704,130,36.61971830985915,23.79631880632789,840.0,200.0,0.02836347578999561,0.03961062210108653,71.63135593739209,83.33333333333333,65.21739130434783,2.933030956233556,495.00238476817424,102.35068191128128,4.836336949833396,82.86596526904523,17.134034730954763,760.3700583021285,163.01699162267303,2,1616816048.0,1616816348.0,0,0,74961,356,9.49,7.0,2.2
768.3041237113403,54.30434175403161,22.405714405747084,8,2.0671834625322996,84,21.705426356589147,22.408470159377703,764.0,432.0,0.02916614588912033,0.07068078912776253,78.50379032016225,126.05042016806723,66.07929515418502,5.895179099396786,592.5137399758186,182.81042297628352,3.2411376240439362,76.42142065065794,23.578579349342057,1523.3259920765815,748.0018291244795,2,1616816348.0,1616816648.0,0,0,74961,388,9.49,7.0,2.2
804.7654986522911,47.917682748160686,24.30515520952187,11,2.972972972972973,130,35.13513513513514,24.307934418121086,800.0,224.0,0.03020499071944389,0.059542416801424185,74.81495759786704,84.26966292134831,64.1025641025641,4.366488345700976,875.2233732263453,200.6275528965655,4.362428592634886,81.35173303056257,18.648266969437437,1239.3928922870466,163.54196616413594,2,1616819348.0,1616819648.0,0,0,74961,371,9.49,7.0,2.2
756.3341772151899,34.81422373299384,17.98022281512776,3,0.7614213197969543,88,22.33502538071066,17.98024861067062,756.0,176.0,0.023772889223218237,0.046030213603699945,79.49882197873204,90.36144578313252,71.42857142857143,3.677565349615395,382.88611615132925,81.06700755065398,4.723081901254173,82.526896919283,17.473103080717,809.6847109958909,345.73158729390764,2,1616822348.0,1616822648.0,0,0,74961,395,9.49,7.0,2.2
760.0407124681934,45.48960827173151,20.6449704851011,4,1.0204081632653061,105,26.785714285714285,20.645699260601074,756.0,216.0,0.027163938617913268,0.05985154153651366,79.22654336060205,91.46341463414635,68.80733944954129,4.7540419228691135,714.8290811614155,118.74066963466751,6.020086322241138,85.75516091829547,14.244839081704534,1394.8417517629955,561.2720009669125,2,1616822948.0,1616823248.0,0,0,74961,393,9.49,7.0,2.2
753.6060606060606,36.432929376086406,13.605522126495615,1,0.25316455696202533,35,8.860759493670885,13.605657795587573,752.0,236.0,0.01805407162549318,0.04834479349434442,79.80251390168866,92.02453987730061,67.56756756756756,3.853262356974616,280.9412631993762,31.352712956156815,8.960668366793024,89.9605130582019,10.039486941798103,882.6502238722423,570.3562477167094,2,1616825348.0,1616825648.0,0,0,74961,396,9.49,7.0,2.2
801.9354838709677,34.582393180548955,15.860398970557572,1,0.2695417789757412,50,13.477088948787062,15.860578535554112,800.0,224.0,0.01977787347555018,0.043123660040105295,74.96140058000172,88.23529411764706,66.3716814159292,3.3169555235156825,409.0670778598561,59.022985447895266,6.93064023711534,87.39067754807478,12.609322451925218,827.5390279126325,359.44896460488116,2,1616829248.0,1616829548.0,0,0,74961,372,9.49,7.0,2.2
812.9046321525885,34.91393251128509,17.89212568382698,1,0.273224043715847,87,23.770491803278688,17.892209129701776,812.0,196.0,0.022010219184411376,0.04294960457886956,73.94538822721337,83.33333333333333,65.50218340611353,3.1767896542286653,170.96320853381243,105.74441445143695,1.6167587614032055,61.78478449179771,38.21521550820229,657.3730739578252,380.6654509725759,2,1616831048.0,1616831348.0,0,0,74961,367,9.49,7.0,2.2
814.2779291553134,25.294746167495486,17.06815533684777,0,0.0,72,19.672131147540984,17.068169332754604,816.0,160.0,0.020961110109493173,0.031064020356949683,73.75771617359113,84.7457627118644,69.12442396313364,2.3510139450151426,187.89052158420196,77.04433190780021,2.438732570347324,70.91951817878655,29.080481821213468,405.2911531889785,140.35629969697635,2,1616831348.0,1616831648.0,0,0,74961,367,9.49,7.0,2.2
815.8688524590164,25.237160300822374,13.041390580301156,0,0.0,32,8.767123287671232,13.041556340438127,812.0,152.0,0.015984868525291872,0.03093286405622418,73.61046938511858,80.21390374331551,66.66666666666667,2.2435716280752134,141.17013708685033,37.316520976903554,3.783046580741684,79.09282330583252,20.907176694167482,414.5684600416879,236.08180197793402,2,1616831948.0,1616832248.0,0,0,74961,366,9.49,7.0,2.2
963.4580645161291,106.86526245635845,40.286245512415526,68,22.006472491909385,183,59.22330097087379,40.28699630398636,988.0,528.0,0.041814997235213786,0.11091843681855386,63.24779765020712,93.75,51.36986301369863,8.884122336066758,708.3606960155132,357.58952436191146,1.9809324595834386,66.45344993359086,33.546550066409154,5119.224501847952,4053.274281470527,2,1616833448.0,1616833748.0,0,0,74961,310,9.49,7.0,2.2
795.2426666666667,72.28510318594347,25.417921795007828,19,5.080213903743315,100,26.737967914438503,25.418002799397133,800.0,460.0,0.03196257427426404,0.09089691262282641,76.06692726185183,96.15384615384616,55.35055350553505,6.8847340572075435,911.2412166187801,116.31176491219884,7.83447157995286,88.68070386610111,11.319296133898886,2936.807792950998,1909.2548114200197,2,1616834648.0,1616834948.0,0,0,74961,375,9.49,7.0,2.2
861.4524495677233,41.92823366974045,23.463970687239634,12,3.468208092485549,135,39.017341040462426,23.46415295697757,864.0,216.0,0.027237896843583045,0.04867155893605042,69.81967454380083,80.64516129032258,62.5,3.5028434755154927,358.308009237944,148.99162236905968,2.404886956330989,70.63044932694118,29.369550673058825,907.1761541463308,399.87652253932714,2,1616836448.0,1616836748.0,0,0,74961,347,9.49,7.0,2.2
828.2333333333333,52.745787564976055,20.471177928558454,5,1.392757660167131,98,27.298050139275766,20.471326505960697,834.0,308.0,0.024716858984135746,0.06368469541390435,72.74506026927779,88.23529411764706,60.72874493927125,4.76484392263261,359.73310899115535,90.7159327235149,3.9654898339363847,79.86099995280323,20.139000047196784,1117.756526287707,667.3074845730366,2,1616840948.0,1616841248.0,0,0,74961,360,9.49,7.0,2.2
828.6777777777778,29.94417378714081,16.358830379437705,0,0.0,68,18.941504178272982,16.359471628928482,832.0,160.0,0.0197416560062692,0.03613488208582176,72.50112032764609,80.64516129032258,66.3716814159292,2.6813041531523467,296.94550606934024,63.22055180709012,4.696977447704563,82.44683239174621,17.553167608253773,625.0826913978038,264.9166335213734,2,1616843348.0,1616843648.0,0,0,74961,360,9.49,7.0,2.2
834.536312849162,33.22923639015377,15.9247104610159,1,0.2801120448179272,62,17.366946778711483,15.925597315640754,836.0,176.0,0.01908316878539379,0.039817603953873466,72.01295056027095,81.52173913043478,65.78947368421052,2.941418353665323,226.48548982729716,52.590280277839526,4.306603589689054,81.1555549025173,18.8444450974827,814.3994128769262,535.3236427717895,2,1616843648.0,1616843948.0,0,0,74961,358,9.49,7.0,2.2
817.2568306010929,51.74896883158997,23.336126221257228,15,4.109589041095891,106,29.041095890410958,23.336959926908584,812.0,244.0,0.028555233866622117,0.06332032586809776,73.71142264916503,86.70520231213872,64.1025641025641,4.680758688612304,1700.8928557367772,131.6144764765439,12.923296139387123,92.81779264055776,7.182207359442246,2154.414977648495,321.9076454351742,2,1616845748.0,1616846048.0,0,0,74961,366,9.49,7.0,2.2
836.8067226890756,42.08791173518903,23.6854865358588,10,2.808988764044944,126,35.39325842696629,23.68804752413373,836.0,212.0,0.02830766876252173,0.050295857566654896,71.88454211733698,82.87292817679558,64.1025641025641,3.6593781635267875,904.0143111181882,139.7937007818678,6.466774297139467,86.60733590965644,13.392664090343557,1395.3352309775821,351.5272190775262,2,1616846048.0,1616846348.0,0,0,74961,357,9.49,7.0,2.2
848.1481481481482,23.09386413847975,18.18689009777569,0,0.0,85,24.285714285714285,18.187593887828356,848.0,164.0,0.021443887990015967,0.027228573438382236,70.79571451995736,80.21390374331551,65.78947368421052,1.965024188514428,109.41400289392118,75.98513049980795,1.4399396589073137,59.01537989477029,40.98462010522971,366.78239991011344,181.38326651638434,2,1616847848.0,1616848148.0,0,0,74961,351,9.49,7.0,2.2
837.6694677871149,45.52357696345284,25.38954681037966,23,6.46067415730337,108,30.337078651685392,25.389549296573698,840.0,240.0,0.030309746592108323,0.054345513014474815,71.84148868139272,84.7457627118644,63.29113924050633,3.95669408080444,1466.3253585601988,200.44927818662626,7.315194007308879,87.97382238921881,12.026177610781193,1895.4660907825937,228.69145403576863,2,1616849048.0,1616849348.0,0,0,74961,357,9.49,7.0,2.2
904.5575757575757,55.021228455309185,34.05412308817142,42,12.76595744680851,193,58.66261398176292,34.05413176954461,908.0,316.0,0.037647279379672376,0.06082667364675861,66.58476627113822,80.21390374331551,56.390977443609025,4.1998104544406205,450.45245534204287,238.15085441780167,1.8914584893816435,65.41537761402012,34.5846223859799,1901.1688919520946,1212.56558219225,2,1616853243.0,1616853543.0,1,1,74962,330,9.49,7.0,2.2
920.4567901234568,34.02186489910248,30.205068047961706,26,8.04953560371517,176,54.4891640866873,30.20507820261365,916.0,224.0,0.032815313577688285,0.036961935925899664,65.2721946995873,71.42857142857143,56.390977443609025,2.3658744946110812,265.32062780736914,195.81501129748216,1.3549555064718406,57.536352714443204,42.463647285556796,752.4325313621428,291.2968922572915,2,1616854748.0,1616855048.0,0,0,74961,324,9.49,7.0,2.2
892.5850746268657,26.14362251340003,22.02664475111262,1,0.2994011976047904,131,39.221556886227546,22.0266577740385,892.0,164.0,0.024677376308635316,0.029289782292549596,67.27786831962426,73.52941176470588,61.224489795918366,1.9642056878244913,140.62818493455458,102.07326419880391,1.3777181129493306,57.94286990733328,42.05713009266671,442.9702101536261,200.26876102026765,2,1616855048.0,1616855348.0,0,0,74961,335,9.49,7.0,2.2
864.4393063583815,53.32659084464025,30.61342958561632,30,8.695652173913043,177,51.30434782608695,30.613438367743868,872.0,248.0,0.03541421374822592,0.06168922497206759,69.68300239275185,82.41758241758242,61.47540983606557,4.4588788521684695,543.4399552446214,253.23824669232727,2.1459631881943793,68.21323263563207,31.786767364367936,1803.9796782874337,1007.3014763504849,2,1616855648.0,1616855948.0,0,0,74961,346,9.49,7.0,2.2
866.6976744186046,38.110188491781436,24.944352895149787,10,2.9154518950437316,120,34.98542274052478,24.94448646991582,864.0,252.0,0.028781070038810246,0.04397172118564457,69.36334736083995,81.52173913043478,60.72874493927125,3.086583933050813,302.993041644953,139.96034570584092,2.164849194369404,68.40291784584541,31.59708215415458,842.2778603382243,399.3244729874303,2,1616857748.0,1616858048.0,0,0,74961,344,9.49,7.0,2.2
870.6239067055394,38.90754087242997,19.43267022490833,2,0.5847953216374269,86,25.146198830409357,19.432895484219145,872.0,236.0,0.022320654572596865,0.044689263151131454,69.0580904468423,81.08108108108108,61.47540983606557,3.1908536285531324,332.7212587738205,66.05588363045307,5.036966285020362,83.43538869048649,16.564611309513502,859.2992056160294,460.5220632117559,2,1616858948.0,1616859248.0,0,0,74961,343,9.49,7.0,2.2
997.9130434782609,38.32927540127382,35.96337891821583,55,18.456375838926174,199,66.77852348993288,35.963441541609704,996.0,244.0,0.03603865264277724,0.03840943422051664,60.214028069340095,67.56756756756756,53.003533568904594,2.3133996658906146,350.04274124546043,263.06709143634964,1.330621551081219,57.09299094329231,42.90700905670769,1047.125425801063,434.0155931192531,2,1616861348.0,1616861648.0,0,0,74961,299,9.49,7.0,2.2
1020.3003412969283,43.83302571941314,41.57961883628611,73,25.0,199,68.15068493150685,41.579763254842696,1024.0,264.0,0.04075247412148236,0.04296090469174589,58.91571033358473,67.26457399103138,51.90311418685121,2.558508221642735,554.3441824882195,380.18741215169484,1.4580813692669974,59.317864229278904,40.68213577072109,1323.5793775679783,389.0477829280639,2,1616862248.0,1616862548.0,0,0,74961,293,9.49,7.0,2.2
1010.2779661016949,63.69157204521399,45.45159379391602,91,30.952380952380953,194,65.98639455782313,45.451626375038046,1008.0,336.0,0.0449892286084589,0.0630436119387788,59.62800459204687,69.44444444444444,50.0,3.8009903582313296,509.9830336675431,457.5482418550505,1.1145994826685484,52.70972076763984,47.29027923236016,2339.497659884014,1371.9663843614203,2,1616867948.0,1616868248.0,0,0,74961,295,9.49,7.0,2.2
998.3946488294314,77.33266046085215,34.02214335484652,35,11.74496644295302,135,45.30201342281879,34.0240735934517,988.0,408.0,0.034078782006036645,0.077457006156354,60.45646284322206,76.14213197969544,50.16722408026756,4.680402585167894,745.1391825227383,219.64314544040963,3.3924991423185507,77.23391701171381,22.766082988286183,3793.38044828421,2828.598120321062,2,1616872148.0,1616872448.0,0,0,74961,299,9.49,7.0,2.2
1162.890625,55.98952764475115,68.52425451154458,151,59.21568627450981,217,85.09803921568627,68.52576444051437,1160.0,300.0,0.058927093371755716,0.04814685615403525,51.71330079141265,57.69230769230769,44.776119402985074,2.4553685162244516,639.5250338196442,1039.8634749591893,0.6150086518278212,38.080827067506526,61.919172932493474,2258.4017209734784,579.0132121946449,2,1616873291.0,1616873591.0,1,1,74960,256,9.49,7.0,2.2
1128.5,43.09040809695328,55.78828298937848,129,49.049429657794676,216,82.12927756653993,55.78830164793025,1128.0,244.0,0.04943580119444417,0.03818379095875346,53.244504335889005,58.13953488372093,47.02194357366771,2.0123228533943025,337.98621141212834,766.1425436124291,0.4411531695113729,30.611123012063118,69.38887698793688,1387.8850351177155,283.75628009315807,2,1616874248.0,1616874548.0,0,0,74961,264,9.49,7.0,2.2
1132.090909090909,49.92579353407328,55.88659329374,129,49.049429657794676,202,76.80608365019012,55.88799227569697,1128.0,308.0,0.04936705332310823,0.04410051625108858,53.100782545824075,58.59375,45.04504504504504,2.310468101996047,615.8694758358013,686.1946966685285,0.8975141877747587,47.299471780355226,52.70052821964478,1731.7970941552726,429.7329216509427,2,1616876048.0,1616876348.0,0,0,74961,264,9.49,7.0,2.2
1116.943820224719,47.58981051706621,54.60113931084795,126,47.36842105263158,209,78.57142857142857,54.6039740766403,1116.0,296.0,0.048886947658347286,0.0426071657816161,53.81558334145448,62.24066390041494,47.61904761904762,2.298136369505462,487.8550133092764,710.288186336056,0.6868409508904029,40.717588135849574,59.28241186415042,1537.8890106484512,339.74581100311883,2,1616876648.0,1616876948.0,0,0,74961,267,9.49,7.0,2.2
1114.561797752809,97.8485812410751,83.61546061651951,174,65.41353383458646,216,81.203007518797,83.61925885301675,1128.0,528.0,0.07502433604095417,0.0877910775682052,54.32420044277799,77.31958762886597,46.012269938650306,5.681281407016023,1308.9558931136644,1393.344705917961,0.9394343607537521,48.43857465682135,51.561425343178655,6087.245072930282,3384.9444738986567,2,1616881448.0,1616881748.0,0,0,74961,267,9.49,7.0,2.2
1150.8262548262549,79.0139616126021,81.8614810836649,159,61.627906976744185,223,86.43410852713178,81.86432337630639,1148.0,476.0,0.0711352587178034,0.06865846280551809,52.38110218990365,62.76150627615063,41.899441340782126,3.589916466662089,1235.5039151382,1223.1094283378754,1.0101335878157425,50.25206254641896,49.74793745358103,4067.1276587694592,1608.5143152933836,2,1616881748.0,1616882048.0,0,0,74961,259,9.49,7.0,2.2
1041.8041958041958,84.22486683195037,47.8349805231458,73,25.614035087719298,167,58.59649122807018,47.845951633542604,1036.0,500.0,0.045926050044950206,0.0808451983310885,57.95492735134118,70.75471698113208,44.510385756676556,4.52518118482113,1374.8639200094947,610.1051721213033,2.2534867475867575,69.26374448146315,30.736255518536858,3368.3887217083698,1383.4196295775716,2,1616882648.0,1616882948.0,0,0,74961,286,9.49,7.0,2.2
1027.7379310344827,123.6908200776562,60.669404307722445,102,35.294117647058826,185,64.01384083044982,60.673041732548604,1042.0,796.0,0.05903551858933277,0.12035249098294312,59.377261653438325,90.36144578313252,41.0958904109589,8.497786044267963,1680.0657388628483,716.0809377637124,2.346195311537849,70.11531285839922,29.88468714160079,8013.435995476797,5617.289318850237,2,1616884293.0,1616884593.0,1,1,74962,290,9.49,7.0,2.2
1030.6574394463669,146.76775737852233,61.503782629833246,113,39.236111111111114,206,71.52777777777777,61.50835534931639,1068.0,636.0,0.05967875745636351,0.1424020744054017,59.68420019573452,91.46341463414635,46.43962848297214,10.47271777116383,1636.510644814825,892.9665623047232,1.8326673292122317,64.69758415725785,35.30241584274216,11638.102475512864,9108.625268393314,2,1616885348.0,1616885648.0,0,0,74961,289,9.49,7.0,2.2
1115.565543071161,44.64183289636327,51.98719603014708,107,40.225563909774436,196,73.6842105263158,51.98727432487035,1116.0,328.0,0.04660172111604394,0.04001722101730028,53.869360644055504,60.97560975609756,45.73170731707317,2.133130918267713,694.6705100944553,458.1523904829497,1.5162433385149119,60.258215702214216,39.74178429778578,1473.3099302928686,320.48702971546345,2,1616886548.0,1616886848.0,0,0,74961,267,9.49,7.0,2.2
1068.9605734767026,40.88862598476182,50.26752507761552,115,41.36690647482014,211,75.89928057553956,50.26891712357626,1068.0,228.0,0.047025978666435674,0.03825082701766546,56.211029475352795,62.5,50.505050505050505,2.1435990644187313,305.16964505020155,538.3429728962271,0.5668684470950216,36.17843272969069,63.82156727030931,1207.1302268076054,363.61760886117673,2,1616887748.0,1616888048.0,0,0,74961,279,9.49,7.0,2.2
1038.0487804878048,35.939115038719734,46.94753877610981,99,34.61538461538461,210,73.42657342657343,46.94767210505667,1040.0,176.0,0.04522684577789764,0.034621797852150124,57.87010937383654,63.02521008403362,53.191489361702125,2.0084370850023676,211.77129249910564,457.03229501866326,0.4633617685386058,31.664198047304776,68.33580195269523,779.7460062488922,110.94241873112333,2,1616888348.0,1616888648.0,0,0,74961,287,9.49,7.0,2.2
974.1628664495114,48.245689863960145,45.26179797407569,81,26.470588235294116,209,68.30065359477125,45.26234349392541,976.0,352.0,0.046462809303018375,0.04952528116761327,61.7442131854376,75.37688442211055,52.26480836236934,3.1036247542936968,918.741544192848,523.7115810301162,1.7542891497372013,63.69299134423071,36.30700865576929,1701.1582527152095,258.7051274922455,2,1616891348.0,1616891648.0,0,0,74996,307,9.49,7.0,2.2
949.2866242038217,38.662965901978595,36.978527381538726,61,19.488817891373802,194,61.980830670926515,36.97853621460806,952.0,232.0,0.03895402639389595,0.04072844272340369,63.312331836794,73.52941176470588,57.25190839694657,2.635682105005728,350.1415206607819,356.5407887201591,0.9820517924965947,49.547231622015346,50.45276837798466,1123.2986695091674,416.6163601282265,2,1616892848.0,1616893148.0,0,0,74996,314,9.49,7.0,2.2
970.9545454545455,94.51765710014986,35.07976913476723,46,14.98371335504886,184,59.93485342019544,35.080178056961785,996.0,492.0,0.03612957807467624,0.09734508947162103,62.54448778497487,93.75,53.003533568904594,7.8126151068009815,815.1827847066374,235.3657705341387,3.4634721219515603,77.59591697499457,22.40408302500545,4292.504566464344,3241.9560112235677,2,1616893148.0,1616893448.0,0,0,74996,308,9.49,7.0,2.2
1028.4827586206898,41.11577096591362,33.92099250956049,33,11.418685121107266,166,57.43944636678201,33.921545959416655,1032.0,236.0,0.03298212408043596,0.03997711251966388,58.433944433689675,67.56756756756756,53.380782918149464,2.4004045176478024,496.8832193240097,234.08050413644227,2.122702277821409,67.97645401220694,32.02354598779305,1182.8880815217885,451.92435806133653,2,1616894348.0,1616894648.0,0,0,74996,290,9.49,7.0,2.2
997.7643097643098,78.18454221150522,39.01955597801818,57,19.256756756756758,181,61.148648648648646,39.01974552121708,1016.0,468.0,0.03910717705510459,0.07835973029539796,60.55832827884757,85.71428571428571,51.36986301369863,5.462973097233143,1122.4675198909229,294.57557531413136,3.810456853708726,79.21195365822628,20.78804634177372,4297.961683268578,2880.9185880635237,2,1616895848.0,1616896148.0,0,0,74996,297,9.49,7.0,2.2
818.4588607594936,152.96294139928102,116.2635545188063,68,21.58730158730159,166,52.698412698412696,116.30517237721253,824.0,1560.0,0.1421026492025347,0.18689142329931913,75.89708986848667,182.9268292682927,31.779661016949152,15.734727589418336,2580.297578030728,2179.138403216036,1.184090727887063,54.21435624300178,45.78564375699822,6945.557921011518,2186.121939764755,2,1616897048.0,1616897348.0,0,0,74997,316,9.49,7.0,2.2
984.2712418300654,78.32673238634212,73.2242601252817,71,23.278688524590162,114,37.377049180327866,73.2243352901788,1000.0,720.0,0.0743944678847185,0.0795784018241846,61.587004137361504,144.23076923076923,52.816901408450704,8.237029941092938,971.2984575573169,1470.828542137172,0.660375040143008,39.77264317862366,60.22735682137633,2990.419791699294,548.2927920048052,2,1616899448.0,1616899748.0,0,0,74997,306,9.49,7.0,2.2
995.6578073089701,45.20994559286057,49.19544965407539,40,13.333333333333334,65,21.666666666666668,49.195596008856995,1000.0,588.0,0.04941014437663194,0.04540711202280678,60.42430250499393,102.73972602739725,51.19453924914676,3.669059670213263,492.12354819348434,495.4586393588522,0.9932686789563632,49.83114867767949,50.168851322320506,1193.1531621908255,205.57097463848896,2,1616899748.0,1616900048.0,0,0,74996,301,9.49,7.0,2.2
793.6276595744681,29.61998750125442,20.757771835039414,1,0.26666666666666666,126,33.6,20.757906124334088,792.0,200.0,0.026155724128194047,0.03732227215610937,75.70780621851306,86.70520231213872,67.26457399103138,2.838972029749093,211.45683952836453,88.0691373886705,2.4010322548653353,70.59716212425057,29.402837875749444,646.4132428446553,346.8872659276203,2,1616908748.0,1616909048.0,0,0,74996,376,9.49,7.0,2.2
805.067385444744,54.60920908784231,31.467000117913134,11,2.972972972972973,165,44.5945945945946,31.467185825614973,808.0,532.0,0.039086399964186266,0.06783184870627258,74.9669856274428,156.25,65.50218340611353,6.818452972240213,504.598202333848,347.4248861845824,1.4523951000613162,59.2235362085417,40.7764637914583,1600.0149730364494,747.9918845180191,2,1616913548.0,1616913848.0,0,0,74996,371,9.49,7.0,2.2
736.039312039312,63.4891746524375,31.643200611186586,26,6.403940886699507,122,30.049261083743843,31.646445881738646,740.0,536.0,0.04299559189855936,0.0862578582610361,82.32518109013938,180.72289156626505,69.12442396313364,9.979014046772898,1127.1041473837395,525.9101806719517,2.1431495126100173,68.18477784820305,31.815222151796945,2557.6319209431167,904.6175928874253,2,1616915648.0,1616915948.0,0,0,74996,407,9.49,7.0,2.2
767.4498714652956,42.38551203109472,24.217635905055715,13,3.350515463917526,127,32.7319587628866,24.21765565369251,772.0,340.0,0.03155600978530836,0.055229030073544565,78.43918986936998,110.29411764705883,67.87330316742081,4.722263673881641,623.002953759193,216.28288908236098,2.8805004242473946,74.23012780126302,25.76987219873698,1575.722827207527,736.4369843659729,2,1616918648.0,1616918948.0,0,0,74996,389,9.49,7.0,2.2
786.8526315789474,35.569833479263515,20.202656055595718,5,1.3192612137203166,90,23.7467018469657,20.20266708273778,784.0,268.0,0.02567528692405572,0.04520520368329566,76.40885362807674,94.33962264150944,66.3716814159292,3.460559174753597,242.25736772512707,98.02533139146391,2.471375146467732,71.1929723003997,28.8070276996003,706.0979233245444,365.8152242079533,2,1616918948.0,1616919248.0,0,0,74996,380,9.49,7.0,2.2
817.2821917808219,36.368985634218895,21.026122188212415,5,1.3736263736263736,102,28.021978021978022,21.026409348956616,816.0,200.0,0.025727232968506257,0.04449991202545656,73.55939928636082,83.79888268156425,65.50218340611353,3.2774134910044137,414.0550131485651,102.84328760180065,4.0260771782378875,80.10376752012802,19.89623247987199,1090.0800530973427,573.1817523469769,2,1616919248.0,1616919548.0,0,0,74997,365,9.49,7.0,2.2
803.2117962466488,51.63405842568218,36.03062153944758,12,3.225806451612903,81,21.774193548387096,36.03075150150828,808.0,548.0,0.04485834454857038,0.06428448718876445,75.15993781981666,176.47058823529412,67.56756756756756,7.616204386416372,469.75268762013246,332.9137499319172,1.411034202450934,58.52402263794303,41.47597736205696,1148.4366655202812,345.77022796823144,2,1616922548.0,1616922848.0,0,0,74996,373,9.49,7.0,2.2
824.9613259668508,30.050071720801387,20.323806553434274,5,1.3850415512465375,108,29.916897506925206,20.32424149245839,820.0,176.0,0.024636599138315333,0.03642603692431623,72.82529668314695,79.36507936507937,64.37768240343348,2.6046154056774204,129.66082056544187,79.3204532427175,1.6346454825300203,62.04422922814985,37.95577077185016,420.16738015763184,211.18610634947248,2,1616924948.0,1616925248.0,0,0,74996,362,9.49,7.0,2.2
815.9890710382514,28.701961953089263,17.63415372918183,2,0.547945205479452,82,22.465753424657535,17.63682324701859,820.0,168.0,0.021614043463324552,0.03517444408485686,73.62258028146616,82.41758241758242,66.96428571428571,2.627926076061601,257.0617865959915,54.80830176604454,4.690197986671598,82.4259190569055,17.574080943094494,525.9764910748854,214.10640271284933,2,1616925248.0,1616925548.0,0,0,74997,366,9.49,7.0,2.2
847.0909090909091,26.09805588752774,20.9308838447771,4,1.1396011396011396,112,31.90883190883191,20.931035858462955,848.0,156.0,0.02470931470735056,0.030809037858210465,70.89816805192216,78.53403141361257,65.21739130434783,2.196886475949879,163.7912324306606,94.74912730462424,1.728683282792271,63.35228766540115,36.64771233459886,454.38388721805666,195.84352748277178,2,1616927348.0,1616927648.0,0,0,74996,352,9.49,7.0,2.2
824.1436464088398,30.97709503139002,19.85535589715421,2,0.554016620498615,108,29.916897506925206,19.855433189603655,824.0,168.0,0.024092199552981575,0.03758700945687198,72.90527583517031,81.08108108108108,66.07929515418502,2.7323045966039823,197.1250861013787,90.09071229939522,2.1880733437458018,68.63309302586315,31.36690697413686,770.4007339049498,483.1849355041759,2,1616927948.0,1616928248.0,0,0,74996,362,9.49,7.0,2.2
889.5357142857143,56.1199028580922,29.853220195992165,32,9.552238805970148,162,48.35820895522388,29.85337301875644,892.0,336.0,0.03356062329968203,0.06308898221490271,67.72290892265505,80.21390374331551,55.35055350553505,4.334357317406753,683.1717078729025,182.69502607391274,3.7394105496693295,78.90032970303089,21.099670296969116,1434.687473643714,568.8207396968987,2,1616931848.0,1616932148.0,0,0,74996,336,9.49,7.0,2.2
895.1077844311377,34.899861885702045,27.167213344476973,7,2.1021021021021022,142,42.64264264264264,27.170466213045263,896.0,380.0,0.03035440724081373,0.03898956359527332,67.14431582829148,98.03921568627452,60.483870967741936,2.950762602253045,311.0917831381367,230.01558882628237,1.3524813023568005,57.49169190003066,42.50830809996934,858.4358001205864,317.32842815616726,2,1616933871.0,1616934171.0,1,1,74996,334,9.49,7.0,2.2
861.7118155619596,26.51704553527111,22.87615323538631,4,1.1560693641618498,125,36.127167630057805,22.876901039172008,860.0,208.0,0.026548203965676146,0.03077252169041943,69.69568516198862,82.41758241758242,64.1025641025641,2.1792394797382038,139.52516562227615,102.47293952666686,1.3615805915860066,57.6554785569095,42.3445214430905,441.4665928732853,199.46848772434225,2,1616936338.0,1616936638.0,1,1,74996,347,9.49,7.0,2.2
917.636923076923,44.19517447972626,32.66077790954243,42,12.962962962962964,170,52.46913580246913,32.661375232815374,920.0,264.0,0.035592917428931156,0.048161940053082955,65.5430285659417,80.21390374331551,59.28853754940712,3.290471226638403,434.14298922681047,251.91058164407784,1.72340116240217,63.281208299186,36.718791700814,1470.4318299584427,784.3782590875544,2,1616937848.0,1616938148.0,0,0,74996,325,9.49,7.0,2.2
920.9753086419753,64.70575941724222,42.23884474017054,47,14.551083591331269,189,58.51393188854489,42.238890125206744,928.0,676.0,0.04586321666700286,0.07025786555847424,65.59471773955556,159.5744680851064,57.034220532319395,6.893669262374712,686.8031192059191,587.0194647825708,1.169983553203483,53.91670141814073,46.08329858185927,1806.1958716095758,532.373287621086,2,1616938382.0,1616938682.0,1,1,74998,324,9.49,7.0,2.2
993.8266666666667,48.6304399306482,38.07595232766117,55,18.39464882943144,183,61.20401337792642,38.076142689884804,996.0,316.0,0.038312659507913654,0.048932516666871685,60.52685824695738,77.31958762886597,54.94505494505494,3.1722356152300253,464.23218226379913,246.77247089868217,1.8812154393607372,65.29242533068361,34.70757466931638,1581.0207701063841,870.016116943903,2,1616939105.0,1616939405.0,1,1,74996,300,9.49,7.0,2.2
852.6971428571428,44.37008650364077,24.201147753395293,16,4.584527220630372,130,37.249283667621775,24.20258339475236,856.0,228.0,0.028383563375920864,0.052034989064193855,70.5571553001984,82.41758241758242,62.76150627615063,3.7071270814252713,463.2043078577689,127.2319135050887,3.6406298946312936,78.4512011794586,21.548798820541403,1235.665717148101,645.2294957852434,2,1616941748.0,1616942048.0,0,0,74996,350,9.49,7.0,2.2
